KEY,EMG,IMU
42,0,10.08
43,0,10.07
44,0,10.08
45,0,10.05
46,0,10.03
47,0,10.07
48,0,10.06
49,0,10.07
50,0,10.05
51,0,10.05
52,0,10.05
53,0,10.04
54,0,10.06
55,0,10.06
56,0,10.06
57,0,10.07
58,0,10.06
59,0,10.05
60,0,10.06
61,0,10.06
62,0,10.06
63,0,10.06
64,0,10.06
65,0,10.06
66,0,10.06
67,0,10.06
68,0,10.07
69,0,10.06
70,0,10.05
71,0,10.06
72,0,10.05
73,0,10.06
74,0,10.05
75,0,10.05
76,0,10.05
77,0,10.06
78,0,10.06
79,0,10.06
80,0,10.05
81,0,10.05
82,0,10.06
83,0,10.06
84,0,10.06
85,0,10.05
86,0,10.06
87,0,10.06
88,0,10.06
89,0,10.06
90,0,10.06
91,0,10.05
92,0,10.07
93,0,10.06
94,0,10.06
95,0,10.07
96,0,10.06
97,0,10.05
98,0,10.06
99,0,10.06
100,0,10.05
101,0,10.06
102,0,10.06
103,0,10.06
104,0,10.05
105,0,10.06
106,0,10.05
107,0,10.06
108,0,10.07
109,0,10.05
110,0,10.07
111,0,10.05
112,0,10.06
113,0,10.06
114,0,10.06
115,0,10.06
116,0,10.06
117,0,10.06
118,0,10.06
119,0,10.08
120,0,10.06
121,0,10.06
122,0,10.04
123,0,10.03
124,0,10.13
125,0,10.07
126,0,10.06
127,0,10.07
128,0,10.07
129,0,10.06
130,0,10.07
131,0,10.06
132,0,10.06
133,0,10.06
134,0,10.06
135,0,10.06
136,0,10.06
137,0,10.06
138,0,10.06
139,0,10.05
140,0,10.07
141,0,10.05
142,0,10.05
143,0,10.06
144,0,10.06
145,0,10.06
146,0,10.06
147,0,10.06
148,0,10.06
149,0,10.06
150,0,10.06
151,0,10.05
152,0,10.06
153,0,10.06
154,0,10.06
155,0,10.06
156,0,10.06
157,0,10.05
158,0,10.06
159,0,10.06
160,0,10.05
161,0,10.06
162,0,10.06
163,0,10.06
164,0,10.07
165,0,10.06
166,0,10.05
167,0,10.05
168,0,10.06
169,0,10.05
170,0,10.06
171,0,10.06
172,0,10.07
173,0,10.07
174,0,10.05
175,0,10.05
176,0,10.05
177,0,10.05
178,0,10.06
179,0,10.07
180,0,10.06
181,0,10.06
182,0,10.06
183,0,10.06
184,0,10.05
185,0,10.06
186,0,10.06
187,0,10.06
188,0,10.06
189,0,10.05
190,0,10.05
191,0,10.06
192,0,10.06
193,0,10.05
194,0,10.04
195,0,10.06
196,0,10.06
197,0,10.05
198,0,10.05
199,0,10.06
0,0,10.05
1,0,10.06
2,0,10.06
3,0,10.05
4,0,10.06
5,0,10.03
6,0,10.07
7,0,10.08
8,0,10.08
9,0,10.05
10,0,10.06
11,0,10.05
12,0,10.04
13,0,10.06
14,0,10.05
15,0,10.06
16,0,10.07
17,0,10.06
18,0,10.06
19,0,10.06
20,0,10.05
21,0,10.06
22,0,10.05
23,0,10.05
24,0,10.07
25,0,10.07
26,0,10.06
27,0,10.06
28,0,10.06
29,0,10.05
30,0,10.06
31,0,10.06
32,0,10.06
33,0,10.06
34,0,10.06
35,0,10.06
36,0,10.05
37,0,10.05
38,0,10.04
39,0,10.06
40,0,10.06
41,0,10.06
42,0,10.06
43,0,10.06
44,0,10.06
45,0,10.05
46,0,10.07
47,0,10.07
48,0,10.05
49,0,10.06
50,0,10.06
51,0,10.06
52,0,10.06
53,0,10.05
54,0,10.05
55,0,10.06
56,0,10.06
57,0,10.05
58,0,10.07
59,0,10.06
60,0,10.05
61,0,10.06
62,0,10.06
63,0,10.06
64,0,10.05
65,0,10.06
66,0,10.06
67,0,10.05
68,0,10.06
69,0,10.05
70,0,10.06
71,0,10.06
72,0,10.06
73,0,10.06
74,0,10.06
75,0,10.06
76,0,10.06
77,0,10.05
78,0,10.06
79,0,10.05
80,0,10.04
81,0,10.07
82,0,10.06
83,0,10.05
84,0,10.06
85,0,10.05
86,0,10.06
87,0,10.06
88,0,10.06
89,0,10.06
90,0,10.05
91,0,10.05
92,0,10.06
93,0,10.07
94,0,10.06
95,0,10.05
96,0,10.06
97,0,10.05
98,0,10.05
99,0,10.04
100,0,10.08
101,0,10.04
102,0,10.06
103,0,10.07
104,0,10.04
105,0,10.25
106,0,10.3
107,0,9.99
108,0,10.02
109,0,10.12
110,0,10.05
111,0,10.06
112,0,10.09
113,0,10.15
114,0,10.01
115,0,10.11
116,0,10.04
117,0,10.07
118,0,10.05
119,0,10.06
120,0,10.06
121,0,10.05
122,0,10.06
123,0,10.05
124,0,10.05
125,0,10.07
126,0,10.07
127,0,10.06
128,0,10.06
129,0,10.04
130,0,10.05
131,0,10.07
132,0,10.06
133,0,10.07
134,0,10.07
135,0,10.05
136,0,10.05
137,0,10.05
138,0,10.06
139,0,10.06
140,0,10.05
141,0,10.05
142,0,10.06
143,0,10.06
144,0,10.05
145,0,10.06
146,0,10.06
147,0,10.07
148,0,10.05
149,0,10.05
150,0,10.06
151,0,10.05
152,0,10.05
153,0,10.05
154,0,10.06
155,0,10.05
156,0,10.06
157,0,10.06
158,0,10.06
159,0,10.06
160,0,10.05
161,0,10.04
162,0,10.05
163,0,10.06
164,0,10.07
165,0,10.06
166,0,10.05
167,0,10.06
168,0,10.06
169,0,10.06
170,0,10.06
171,0,10.05
172,0,10.06
173,0,10.06
174,0,10.06
175,0,10.06
176,0,10.06
177,0,10.07
178,0,10.05
179,0,10.06
180,0,10.07
181,0,10.06
182,0,10.06
183,0,10.06
184,0,10.06
185,0,10.06
186,0,10.05
187,0,10.05
188,0,10.07
189,0,10.06
190,0,10.05
191,0,10.05
192,0,10.06
193,0,10.06
194,0,10.04
195,0,10.05
196,0,10.04
197,0,10.06
198,0,10.06
199,0,10.06
0,0,10.06
1,0,10.06
2,0,10.06
3,0,10.06
4,0,10.06
5,0,10.05
6,0,10.06
7,0,10.05
8,0,10.05
9,0,10.06
10,0,10.05
11,0,10.07
12,0,10.06
13,0,10.05
14,0,10.06
15,0,10.06
16,0,10.05
17,0,10.06
18,0,10.06
19,0,10.06
20,0,10.05
21,0,10.05
22,0,10.05
23,0,10.07
24,0,10.06
25,0,10.06
26,0,10.07
27,0,10.06
28,0,10.06
29,0,10.05
30,0,10.06
31,0,10.05
32,0,10.05
33,0,10.05
34,0,10.06
35,0,10.06
36,0,10.06
37,0,10.06
38,0,10.07
39,0,10.05
40,0,10.05
41,0,10.06
0,0,10.05
1,0,10.06
2,0,10.05
3,0,10.06
4,0,10.06
5,0,10.07
6,0,10.05
7,0,10.04
8,0,10.05
9,0,10.07
10,0,10.07
11,0,10.06
12,0,10.06
13,0,10.07
14,0,10.05
15,0,10.07
16,0,10.05
17,0,10.09
18,0,10.08
19,0,10.06
20,0,9.69
21,0,10.02
22,0,9.96
23,0,10.04
24,0,9.96
25,0,10.14
26,0,10.07
27,0,10.11
28,0,10.11
29,0,10.04
30,0,10.05
31,0,10.07
32,0,10.07
33,0,9.95
34,0,10.02
35,0,10.0
36,0,10.03
37,0,10.14
38,0,10.04
39,0,10.04
40,0,10.01
41,0,10.12
42,0,10.09
43,0,10.01
44,0,10.07
45,0,10.02
46,0,10.15
47,0,10.2
48,0,9.96
49,0,10.01
50,0,10.08
51,0,10.07
52,0,10.0
53,0,10.07
54,0,10.06
55,0,10.08
56,0,10.07
57,0,10.05
58,0,10.06
59,0,10.05
60,0,10.06
61,0,10.03
62,0,10.05
63,0,10.08
64,0,10.01
65,0,10.06
66,0,10.04
67,0,10.08
68,0,10.04
69,0,10.08
70,0,10.07
71,0,10.05
72,0,10.06
73,0,10.1
74,0,10.05
75,0,10.0
76,0,10.09
77,0,10.01
78,0,10.12
79,0,10.03
80,0,10.05
81,0,10.06
82,0,10.11
83,0,10.0
84,0,10.07
85,0,10.07
86,0,10.03
87,0,10.12
88,0,10.03
89,0,9.99
90,0,10.12
91,0,10.1
92,0,9.84
93,0,10.09
94,0,10.02
95,0,10.04
96,0,10.08
97,0,10.1
98,0,10.05
99,0,10.02
100,0,10.05
101,0,10.06
102,0,10.06
103,0,10.05
104,0,10.06
105,0,10.05
106,0,10.06
107,0,10.05
108,0,10.06
109,0,10.05
110,0,10.06
111,0,10.05
112,0,10.05
113,0,10.04
114,0,10.07
115,0,10.06
116,0,10.06
117,0,10.06
118,0,10.05
119,0,10.06
120,0,10.07
121,0,10.06
122,0,10.05
123,0,10.06
124,0,10.07
125,0,10.06
126,0,10.06
127,0,10.06
128,0,10.06
129,0,10.06
130,0,10.05
131,0,10.06
132,0,10.06
133,0,10.06
134,0,10.06
135,0,10.06
136,0,10.06
137,0,10.06
138,0,10.05
139,0,10.05
140,0,10.05
141,0,10.06
142,0,10.06
143,0,10.05
144,0,10.05
145,0,10.06
146,0,10.06
147,0,10.06
148,0,10.06
149,0,10.05
150,0,10.07
151,0,10.07
152,0,10.06
153,0,10.06
154,0,10.06
155,0,10.05
156,0,10.06
157,0,10.05
158,0,10.06
159,0,10.05
160,0,10.06
161,0,10.06
162,0,10.06
163,0,10.06
164,0,10.05
165,0,10.06
166,0,10.06
167,0,10.05
168,0,10.05
169,0,10.06
170,0,10.07
170,0,10.06
172,0,10.06
173,0,10.05
174,0,10.05
175,0,10.06
176,0,10.06
177,0,10.06
178,0,10.05
179,0,10.06
180,0,10.07
181,0,10.05
182,0,10.06
183,0,10.06
184,0,10.06
185,0,10.06
186,0,10.05
187,0,10.05
188,0,10.06
189,0,10.06
190,0,10.06
191,0,10.06
192,0,10.05
193,0,10.06
194,0,10.05
195,0,10.05
196,0,10.05
197,0,10.05
198,0,10.06
199,0,10.06
0,0,10.06
1,0,10.06
2,0,10.06
3,0,10.06
4,0,10.07
5,0,10.06
6,0,10.06
7,0,10.07
8,0,10.06
8,0,10.05
10,0,10.05
11,0,10.05
12,0,10.05
13,0,10.06
14,0,10.05
15,0,10.06
16,0,10.05
17,0,10.05
18,0,10.06
19,0,10.06
20,0,10.06
21,0,10.06
22,0,10.07
23,0,10.05
24,0,10.05
25,0,10.07
26,0,10.05
27,0,10.05
28,0,10.05
29,0,10.06
30,0,10.06
31,0,10.05
32,0,10.05
33,0,10.05
34,0,10.06
35,0,10.06
36,0,10.06
37,0,10.06
38,0,10.07
39,0,10.06
40,0,10.07
41,0,10.06
42,0,10.05
43,0,10.05
44,0,10.07
45,0,10.06
46,0,10.06
47,0,10.06
48,0,10.06
49,0,10.06
50,0,10.05
51,0,10.05
52,0,10.04
53,0,10.07
54,0,10.06
55,0,10.06
56,0,10.06
57,0,10.06
58,0,10.07
59,0,10.06
60,0,10.05
61,0,10.05
62,0,10.06
63,0,10.06
64,0,10.07
65,0,10.05
66,0,10.06
67,0,10.05
68,0,10.06
69,0,10.05
70,0,10.06
71,0,10.06
72,0,10.07
73,0,10.06
74,0,10.05
75,0,10.05
76,0,10.06
77,0,10.06
78,0,10.06
79,0,10.05
80,0,10.05
81,0,10.06
82,0,10.06
83,0,10.05
84,0,10.06
85,0,10.06
86,0,10.06
87,0,10.05
88,0,10.06
89,0,10.06
90,0,10.07
91,0,10.06
92,0,10.06
93,0,10.06
94,0,10.05
95,0,10.07
96,0,10.05
97,0,10.05
98,0,10.06
99,0,10.06
100,0,10.04
101,0,10.05
102,0,10.07
103,0,10.06
104,0,10.07
105,0,10.06
106,0,10.06
107,0,10.06
108,0,10.05
109,0,10.05
110,0,10.05
111,0,10.05
112,0,10.06
113,0,10.06
114,0,10.06
115,0,10.05
116,0,10.05
117,0,10.06
118,0,10.06
119,0,10.05
120,0,10.05
121,0,10.06
122,0,10.06
123,0,10.06
124,0,10.05
125,0,10.06
126,0,10.07
127,0,10.04
128,0,10.06
129,0,10.06
130,0,10.05
131,0,10.06
132,0,10.06
133,0,10.04
134,0,10.06
135,0,10.06
136,0,10.07
137,0,10.06
138,0,10.05
139,0,10.06
140,0,10.06
141,0,10.05
142,0,10.05
143,0,10.06
144,0,10.06
145,0,10.06
146,0,10.05
147,0,10.06
148,0,10.06
149,0,10.05
150,0,10.07
151,0,10.05
152,0,10.07
153,0,10.05
154,0,10.06
155,0,10.05
156,0,10.07
157,0,10.05
158,0,10.06
159,0,10.06
160,0,10.03
161,0,10.18
162,0,10.12
163,0,10.03
164,0,10.03
165,0,10.06
166,0,10.05
167,0,10.07
168,0,10.05
169,0,10.04
170,0,9.94
171,0,9.94
172,0,10.08
173,0,10.07
174,0,10.05
175,0,10.06
176,0,10.07
177,0,10.06
178,0,10.05
179,0,10.06
180,0,10.04
181,0,10.05
182,0,10.06
183,0,10.04
184,0,10.05
185,0,10.05
186,0,10.06
187,0,10.06
188,0,10.05
189,0,10.06
190,0,10.07
191,0,10.06
192,0,10.06
193,0,10.06
194,0,10.07
195,0,10.08
196,0,10.05
197,0,10.06
198,0,10.05
199,0,10.05
0,0,10.06
1,0,10.06
2,0,10.06
3,0,10.06
4,0,10.04
5,0,10.05
6,0,10.07
7,0,10.04
8,0,10.08
9,0,10.06
10,0,10.06
11,0,10.06
12,0,10.06
13,0,10.06
14,0,10.08
15,0,10.07
16,0,10.05
17,0,10.05
18,0,10.06
19,0,10.07
20,0,10.05
21,0,10.06
22,0,10.07
23,0,10.07
24,0,10.07
25,0,10.01
26,0,10.14
27,0,10.04
28,0,10.1
29,0,10.07
30,0,10.07
31,0,10.07
32,0,10.03
33,0,10.19
34,0,10.11
35,0,10.03
36,0,10.06
37,0,10.02
38,0,10.08
39,0,10.06
40,0,10.03
41,0,10.06
42,0,10.06
43,0,10.06
44,0,10.06
45,0,10.06
46,0,10.06
47,0,10.05
48,0,10.06
49,0,10.05
50,0,10.04
51,0,10.06
52,0,10.06
53,0,10.04
54,0,10.06
55,0,10.08
56,0,10.05
57,0,10.04
58,0,10.06
59,0,10.07
60,0,10.07
61,0,10.07
62,0,10.07
63,0,10.07
64,0,10.08
65,0,10.08
66,0,10.06
67,0,10.07
68,0,10.06
69,0,10.06
70,0,10.06
71,0,10.06
72,0,10.06
73,0,10.07
74,0,10.06
75,0,10.06
76,0,10.06
77,0,10.05
78,0,10.06
79,0,10.07
80,0,10.05
81,0,10.06
82,0,10.05
83,0,10.06
84,0,10.06
85,0,10.06
86,0,10.05
87,0,10.06
88,0,10.08
89,0,10.08
90,0,10.05
91,0,10.06
92,0,10.07
93,0,10.06
94,0,10.05
95,0,10.06
96,0,10.06
97,0,10.07
98,0,10.07
99,0,10.05
100,0,10.05
101,0,10.05
102,0,10.06
103,0,10.06
104,0,10.05
105,0,10.05
106,0,10.05
107,0,10.06
108,0,10.06
109,0,10.05
110,0,10.05
111,0,10.06
112,0,10.06
113,0,10.06
114,0,10.06
115,0,10.06
116,0,10.07
117,0,10.06
118,0,10.06
119,0,10.05
120,0,10.06
121,0,10.06
122,0,10.06
123,0,10.06
124,0,10.05
125,0,10.06
126,0,10.06
127,0,10.06
128,0,10.05
129,0,10.07
130,0,10.06
131,0,10.05
132,0,10.07
133,0,10.06
134,0,10.05
135,0,10.05
136,0,10.05
137,0,10.06
138,0,10.05
139,0,10.06
140,0,10.05
141,0,10.06
142,0,10.06
143,0,10.06
144,0,10.06
145,0,10.06
146,0,10.06
147,0,10.06
148,0,10.06
149,0,10.07
150,0,10.06
151,0,10.06
152,0,10.07
153,0,10.06
154,0,10.05
155,0,10.05
156,0,10.05
157,0,10.05
158,0,10.05
159,0,10.06
160,0,10.05
161,0,10.06
162,0,10.06
163,0,10.05
164,0,10.06
165,0,10.06
166,0,10.04
167,0,10.05
168,0,10.05
169,0,10.06
170,0,10.05
171,0,10.06
172,0,10.05
173,0,10.07
174,0,10.05
175,0,10.06
176,0,10.06
177,0,10.06
178,0,10.05
179,0,10.05
180,0,10.06
181,0,10.05
182,0,10.05
183,0,10.05
184,0,10.06
185,0,10.06
186,0,10.06
187,0,10.06
188,0,10.06
189,0,10.06
190,0,10.05
191,0,10.07
192,0,10.05
193,0,10.06
194,0,10.05
195,0,10.06
196,0,10.06
197,0,10.06
198,0,10.06
199,0,10.07
0,0,10.06
1,0,10.06
2,0,10.06
3,0,10.06
4,0,10.05
5,0,10.06
6,0,10.06
7,0,10.06
8,0,10.06
8,0,10.06
10,0,10.06
11,0,10.05
12,0,10.06
13,0,10.06
14,0,10.04
15,0,10.06
16,0,10.05
17,0,10.06
18,0,10.05
19,0,10.05
20,0,10.05
21,0,10.05
22,0,10.06
23,0,10.06
24,0,10.05
25,0,10.06
26,0,10.06
27,0,10.05
28,0,10.07
29,0,10.05
30,0,10.06
31,0,10.05
32,0,10.06
33,0,10.06
34,0,10.06
35,0,10.05
36,0,10.06
37,0,10.06
38,0,10.06
39,0,10.06
40,0,10.06
41,0,10.06
42,0,10.05
43,0,10.07
44,0,10.06
45,0,10.06
46,0,10.05
47,0,10.06
48,0,10.05
49,0,10.06
50,0,10.06
51,0,10.05
52,0,10.07
53,0,10.05
54,0,10.06
55,0,10.05
56,0,10.06
57,0,10.05
58,0,10.07
59,0,10.05
60,0,10.05
61,0,10.06
62,0,10.05
63,0,10.06
64,0,10.05
65,0,10.06
66,0,10.05
67,0,10.06
68,0,10.05
69,0,10.06
70,0,10.06
71,0,10.06
72,0,10.07
73,0,10.06
74,0,10.06
75,0,10.06
76,0,10.07
77,0,10.05
78,0,10.06
79,0,10.06
80,0,10.06
81,0,10.05
82,0,10.06
83,0,10.06
84,0,10.06
85,0,10.06
86,0,10.06
87,0,10.06
88,0,10.05
89,0,10.07
90,0,10.05
91,0,10.06
92,0,10.06
93,0,10.06
94,0,10.06
95,0,10.07
96,0,10.07
97,0,10.04
98,0,10.07
99,0,10.05
100,0,10.05
101,0,10.06
102,0,10.05
103,0,10.06
104,0,10.05
105,0,10.05
106,0,10.06
107,0,10.05
108,0,10.07
109,0,10.06
110,0,10.07
111,0,10.06
112,0,10.06
113,0,10.06
114,0,10.06
115,0,10.05
116,0,10.06
117,0,10.05
118,0,10.06
119,0,10.07
120,0,10.06
121,0,10.06
122,0,10.05
123,0,10.06
124,0,10.06
125,0,10.07
126,0,10.06
127,0,10.06
128,0,10.06
129,0,10.06
130,0,10.05
131,0,10.05
132,0,10.04
133,0,10.14
134,0,10.05
135,0,10.06
136,0,10.07
137,0,10.04
138,0,10.06
139,0,10.05
140,0,10.06
141,0,10.06
142,0,10.06
143,0,10.04
144,0,10.04
145,0,10.07
146,0,10.08
147,0,10.06
148,0,10.05
149,0,10.06
150,0,10.07
151,0,10.07
152,0,10.05
153,0,10.07
154,0,10.05
155,0,10.04
156,0,10.07
157,0,10.04
158,0,10.06
159,0,10.06
160,0,10.07
161,0,10.05
162,0,10.09
163,0,10.05
164,0,10.06
165,0,10.06
166,0,10.06
167,0,10.06
168,0,10.07
169,0,10.05
170,0,10.05
171,0,10.06
172,0,10.06
173,0,10.06
174,0,10.05
175,0,10.05
176,0,10.04
177,0,10.06
178,0,10.06
179,0,10.06
180,0,10.04
181,0,10.09
182,0,10.07
183,0,10.06
184,0,10.05
185,0,10.04
186,0,10.05
187,0,10.06
188,0,10.06
189,0,10.04
190,0,10.07
191,0,10.06
192,0,10.06
193,0,10.04
194,0,9.7
195,0,10.39
196,0,10.28
197,0,9.98
198,0,10.74
199,0,10.89
0,0,9.86
1,0,9.99
2,0,10.35
3,0,10.97
4,0,10.52
5,0,9.98
6,0,10.34
7,0,10.56
8,0,10.52
9,0,9.99
10,0,10.42
11,0,10.61
12,0,9.98
13,0,9.93
14,0,10.12
15,0,9.91
16,0,10.01
17,0,10.39
18,0,10.02
19,0,10.07
20,0,10.42
21,0,10.03
22,0,10.79
23,0,9.91
24,0,11.33
25,0,9.28
26,0,10.83
27,0,12.61
28,0,12.0
29,0,7.73
30,0,7.42
31,0,9.09
32,0,15.29
33,0,9.93
34,0,8.8
35,0,8.93
36,0,12.7
37,0,13.02
38,0,11.45
39,0,5.83
40,0,11.3
41,0,15.61
42,0,10.5
43,0,9.03
44,0,8.36
45,0,12.5
46,0,15.14
47,0,10.72
48,0,6.86
49,0,8.72
50,0,13.11
51,0,13.95
52,0,10.62
53,0,10.31
54,0,8.52
55,0,11.55
56,0,15.11
57,0,11.58
58,0,9.66
59,0,9.86
60,0,9.4
61,0,14.46
62,0,14.91
63,0,7.38
64,0,10.1
65,0,12.76
66,0,8.6
67,0,11.24
68,0,10.27
69,0,12.3
70,0,12.84
71,0,10.69
72,0,8.63
73,0,11.82
74,0,14.31
75,0,10.49
76,0,7.81
77,0,12.37
78,0,14.27
79,0,11.84
80,0,8.6
81,0,12.14
82,0,12.87
83,0,11.12
84,0,11.08
85,0,10.5
86,0,9.63
87,0,14.2
88,0,16.14
89,0,9.25
90,0,8.56
91,0,11.74
92,0,12.35
93,0,10.08
94,0,10.58
95,0,9.36
96,0,13.34
97,0,15.07
98,0,10.11
99,0,10.69
100,0,10.05
101,0,10.06
102,0,10.07
103,0,10.06
104,0,10.06
105,0,10.05
106,0,10.06
107,0,10.06
108,0,10.06
109,0,10.06
110,0,10.06
111,0,10.02
112,0,10.08
113,0,10.07
114,0,10.05
115,0,10.08
116,0,10.07
117,0,10.06
118,0,10.06
119,0,10.06
120,0,10.06
121,0,10.07
122,0,10.06
123,0,10.06
124,0,10.07
125,0,10.07
126,0,10.07
127,0,10.05
128,0,10.07
129,0,10.05
130,0,10.07
131,0,10.06
132,0,10.06
133,0,10.06
134,0,10.06
135,0,10.06
136,0,10.07
137,0,10.07
138,0,10.05
139,0,10.07
140,0,10.04
141,0,10.06
142,0,10.05
143,0,10.06
144,0,10.06
145,0,10.05
146,0,10.06
147,0,10.06
148,0,10.06
149,0,10.05
150,0,10.06
151,0,10.06
152,0,10.06
153,0,10.07
154,0,10.06
155,0,10.06
156,0,10.05
157,0,10.05
158,0,10.06
159,0,10.06
160,0,10.06
161,0,10.06
162,0,10.06
163,0,10.06
164,0,10.05
165,0,10.06
166,0,10.06
167,0,10.05
168,0,10.06
169,0,10.05
170,0,10.06
171,0,10.05
172,0,10.07
173,0,10.07
174,0,10.05
175,0,10.06
176,0,10.06
177,0,10.07
178,0,10.06
179,0,10.06
180,0,10.06
181,0,10.05
182,0,10.05
183,0,10.07
184,0,10.07
185,0,10.05
186,0,10.06
187,0,10.05
188,0,10.06
189,0,10.06
190,0,10.06
191,0,10.06
192,0,10.06
193,0,10.07
194,0,10.06
195,0,10.06
196,0,10.06
197,0,10.06
198,0,10.05
199,0,10.07
0,0,10.05
1,0,10.06
2,0,10.06
3,0,10.06
4,0,10.05
5,0,10.06
6,0,10.07
7,0,10.06
8,0,10.07
9,0,10.06
10,0,10.05
11,0,10.06
12,0,10.06
13,0,10.06
14,0,10.06
15,0,10.07
16,0,10.06
17,0,10.05
18,0,10.05
19,0,10.06
20,0,10.06
21,0,10.07
22,0,10.06
23,0,10.06
24,0,10.06
25,0,10.06
26,0,10.06
27,0,10.04
28,0,10.05
29,0,10.05
30,0,10.06
31,0,10.07
32,0,10.06
33,0,10.05
34,0,10.06
35,0,10.07
36,0,10.06
37,0,10.05
38,0,10.06
39,0,10.07
40,0,10.05
41,0,10.06
42,0,10.05
43,0,10.05
44,0,10.06
45,0,10.05
46,0,10.07
47,0,10.05
48,0,10.06
49,0,10.06
50,0,10.05
51,0,10.05
52,0,10.06
53,0,10.06
54,0,10.05
55,0,10.07
56,0,10.05
57,0,10.06
58,0,10.04
59,0,10.07
60,0,10.05
61,0,10.06
62,0,10.05
63,0,10.07
64,0,10.06
65,0,10.06
66,0,10.06
67,0,10.07
68,0,10.07
69,0,10.06
70,0,10.06
71,0,10.06
72,0,10.07
73,0,10.06
74,0,10.06
75,0,10.06
76,0,10.06
77,0,10.05
78,0,10.07
79,0,10.06
80,0,10.04
81,0,10.08
82,0,10.06
83,0,10.05
84,0,10.06
85,0,10.05
86,0,10.06
87,0,10.06
88,0,10.06
89,0,10.05
90,0,10.07
91,0,10.06
92,0,10.06
93,0,10.05
94,0,10.07
95,0,10.05
96,0,10.05
97,0,10.05
98,0,10.04
99,0,10.06
100,0,10.05
101,0,10.03
102,0,10.05
103,0,10.06
104,0,10.05
105,0,10.07
106,0,10.04
107,0,10.04
108,0,9.88
109,0,10.07
110,0,10.06
111,0,10.08
112,0,10.03
113,0,10.08
114,0,10.03
115,0,10.07
116,0,10.06
117,0,10.05
118,0,10.07
119,0,10.05
120,0,10.06
121,0,10.06
122,0,10.06
123,0,10.06
124,0,10.06
125,0,10.05
126,0,10.06
127,0,10.05
128,0,10.05
129,0,10.05
130,0,10.05
131,0,10.04
132,0,10.06
133,0,10.1
134,0,10.05
135,0,10.04
136,0,10.08
137,0,10.07
138,0,10.06
139,0,10.05
140,0,10.06
141,0,10.05
142,0,10.06
143,0,10.05
144,0,10.06
145,0,10.05
146,0,10.06
147,0,10.04
148,0,10.05
149,0,10.08
150,0,10.04
151,0,10.07
152,0,10.11
153,0,10.08
154,0,10.03
155,0,10.07
156,0,10.03
157,0,10.06
158,0,10.05
159,0,10.08
160,0,9.89
161,0,10.03
162,0,10.06
163,0,10.06
164,0,10.04
165,0,10.13
166,0,10.1
167,0,10.06
168,0,10.05
169,0,10.07
170,0,10.07
171,0,10.06
172,0,10.06
173,0,10.06
174,0,10.06
175,0,10.07
176,0,10.07
177,0,10.06
178,0,10.06
179,0,10.04
180,0,10.05
181,0,10.05
182,0,10.06
183,0,10.05
184,0,10.07
185,0,10.06
186,0,10.06
187,0,10.06
188,0,10.05
189,0,10.06
190,0,10.06
191,0,10.06
192,0,10.06
193,0,10.06
194,0,10.05
195,0,10.06
196,0,10.06
197,0,10.05
198,0,10.06
199,0,10.06
0,0,10.05
1,0,10.08
2,0,10.06
3,0,10.07
4,0,10.07
5,0,10.05
6,0,10.01
7,0,10.06
8,0,10.09
9,0,10.04
10,0,10.07
11,0,10.07
12,0,10.05
13,0,10.06
14,0,10.05
15,0,10.06
16,0,10.06
17,0,10.06
18,0,10.06
19,0,10.06
20,0,10.06
21,0,10.05
22,0,10.07
23,0,10.06
24,0,10.06
25,0,10.05
26,0,10.06
27,0,10.06
28,0,10.06
29,0,10.05
30,0,10.06
31,0,10.06
32,0,10.05
33,0,10.06
34,0,10.05
35,0,10.06
36,0,10.04
37,0,10.06
38,0,10.05
39,0,10.06
40,0,10.04
41,0,10.06
42,0,10.06
43,0,10.06
44,0,9.85
45,0,10.04
46,0,10.07
47,0,10.06
48,0,10.06
49,0,10.05
50,0,10.06
51,0,10.06
52,0,10.05
53,0,10.05
54,0,10.05
55,0,10.06
56,0,10.06
57,0,10.06
58,0,10.06
59,0,10.06
60,0,10.05
61,0,10.06
62,0,10.06
63,0,10.06
64,0,10.04
65,0,10.07
66,0,10.06
67,0,10.09
68,0,10.06
69,0,10.06
70,0,10.06
71,0,10.06
72,0,10.06
73,0,10.06
74,0,10.09
75,0,10.06
76,0,10.06
77,0,10.06
78,0,10.06
79,0,10.06
80,0,10.06
81,0,10.05
82,0,10.05
83,0,10.06
84,0,10.06
85,0,10.05
86,0,10.06
87,0,10.06
88,0,10.05
89,0,10.06
90,0,10.06
91,0,10.06
92,0,10.07
93,0,10.06
94,0,10.07
95,0,10.06
96,0,10.07
97,0,10.06
98,0,10.06
99,0,10.06
100,0,10.07
101,0,10.05
102,0,10.07
103,0,10.05
104,0,10.06
105,0,10.06
106,0,10.06
107,0,10.06
108,0,10.05
109,0,10.06
110,0,10.05
111,0,10.05
112,0,10.06
113,0,10.06
114,0,10.05
115,0,10.06
116,0,10.04
117,0,10.07
118,0,10.06
119,0,10.06
120,0,10.06
121,0,10.06
122,0,10.07
123,0,10.05
124,0,10.06
125,0,10.05
126,0,10.06
127,0,10.06
128,0,10.06
129,0,10.06
130,0,10.05
131,0,10.05
132,0,10.06
133,0,10.05
134,0,10.06
135,0,10.06
136,0,10.06
137,0,10.06
138,0,10.06
139,0,10.06
140,0,10.05
141,0,10.07
142,0,10.06
143,0,10.06
144,0,10.06
145,0,10.06
146,0,10.06
147,0,10.05
148,0,10.06
149,0,10.06
150,0,10.07
151,0,10.05
152,0,10.06
153,0,10.05
154,0,10.06
155,0,10.06
156,0,10.07
157,0,10.05
158,0,10.06
159,0,10.06
160,0,10.06
161,0,10.05
162,0,10.06
163,0,10.06
164,0,10.06
165,0,10.06
166,0,10.07
167,0,10.06
168,0,10.05
169,0,10.07
170,0,10.06
171,0,10.07
172,0,10.06
173,0,10.05
174,0,10.06
175,0,10.06
176,0,10.07
177,0,10.05
178,0,10.06
179,0,10.05
180,0,10.06
181,0,10.06
182,0,10.05
183,0,10.06
184,0,10.06
185,0,10.06
186,0,10.05
187,0,10.06
188,0,10.05
189,0,10.06
190,0,10.05
191,0,10.07
192,0,10.06
193,0,10.06
194,0,10.07
195,0,10.05
196,0,10.06
197,0,10.05
198,0,10.06
199,0,10.06
0,0,10.06
1,0,10.05
2,0,10.08
3,0,10.06
4,0,10.05
5,0,10.05
6,0,10.06
7,0,10.05
8,0,10.06
9,0,10.06
10,0,10.05
11,0,10.06
12,0,10.06
13,0,10.06
14,0,10.05
15,0,10.06
16,0,10.05
17,0,10.06
18,0,10.05
19,0,10.05
20,0,10.07
21,0,10.07
22,0,10.06
23,0,10.07
24,0,10.05
25,0,10.05
26,0,10.06
27,0,10.06
28,0,10.06
29,0,10.05
30,0,10.07
31,0,10.06
32,0,10.06
33,0,10.06
34,0,10.05
35,0,10.05
36,0,10.05
37,0,10.06
38,0,10.06
39,0,10.07
40,0,10.05
41,0,10.05
42,0,10.05
43,0,10.06
44,0,10.05
45,0,10.05
46,0,10.06
47,0,10.07
48,0,10.06
49,0,10.06
50,0,10.07
51,0,10.05
52,0,10.07
53,0,10.05
54,0,10.05
55,0,10.11
56,0,10.04
57,0,10.06
58,0,10.07
59,0,10.06
60,0,10.04
61,0,10.05
62,0,10.05
63,0,10.07
64,0,10.05
65,0,10.07
66,0,10.03
67,0,10.07
68,0,10.06
69,0,10.07
70,0,10.06
71,0,10.07
72,0,10.06
73,0,10.06
74,0,10.06
75,0,10.06
76,0,10.07
77,0,10.06
78,0,10.06
79,0,10.05
80,0,10.06
81,0,10.07
82,0,10.06
83,0,10.06
84,0,10.06
85,0,10.06
86,0,10.06
87,0,10.07
88,0,10.05
89,0,10.06
90,0,10.05
91,0,10.05
92,0,10.07
93,0,10.06
94,0,10.06
95,0,10.05
96,0,10.06
97,0,10.06
98,0,10.06
99,0,10.05
100,0,10.04
101,0,10.08
102,0,10.07
103,0,10.05
104,0,10.05
105,0,10.06
106,0,10.06
107,0,10.06
108,0,10.05
109,0,10.07
110,0,10.05
111,0,10.05
112,0,10.06
113,0,9.94
114,0,10.05
115,0,10.07
116,0,10.07
117,0,10.05
118,0,10.07
119,0,10.06
120,0,9.98
121,0,10.05
122,0,10.12
123,0,10.01
124,0,10.06
125,0,10.04
126,0,10.05
127,0,10.06
128,0,10.06
129,0,10.04
130,0,10.05
131,0,10.05
132,0,10.12
133,0,10.05
134,0,10.09
135,0,10.05
136,0,10.05
137,0,10.05
138,0,10.05
139,0,10.06
140,0,10.06
141,0,10.05
142,0,10.04
143,0,10.05
144,0,10.04
145,0,10.07
146,0,10.06
147,0,10.06
148,0,10.05
149,0,10.08
150,0,10.05
151,0,10.05
152,0,10.07
153,0,10.06
154,0,10.05
155,0,10.07
156,0,10.06
157,0,10.05
158,0,10.06
159,0,10.06
160,0,10.07
161,0,10.06
162,0,10.05
163,0,10.07
164,0,10.06
165,0,10.06
166,0,10.06
167,0,10.06
168,0,10.05
169,0,10.09
170,0,10.05
171,0,10.06
172,0,10.08
173,0,10.06
174,0,10.07
175,0,10.06
176,0,10.06
177,0,10.07
178,0,10.04
179,0,10.06
180,0,10.05
181,0,10.06
182,0,10.06
183,0,10.07
184,0,10.05
185,0,10.05
186,0,10.06
187,0,10.05
188,0,10.07
189,0,10.06
190,0,10.05
191,0,10.05
192,0,10.07
193,0,10.07
194,0,10.05
195,0,10.05
196,0,10.05
197,0,10.05
198,0,10.06
199,0,10.06
0,0,10.06
1,0,10.06
2,0,10.05
3,0,10.07
4,0,10.05
5,0,10.05
6,0,10.05
7,0,10.06
8,0,10.05
9,0,10.06
10,0,10.05
11,0,10.06
12,0,10.06
13,0,10.04
14,0,10.07
15,0,10.06
16,0,10.07
17,0,10.04
18,0,10.07
19,0,10.06
20,0,10.07
21,0,10.05
22,0,10.06
23,0,10.05
24,0,10.06
25,0,10.05
26,0,10.05
27,0,10.06
28,0,10.05
29,0,10.06
30,0,10.06
31,0,10.05
32,0,10.05
33,0,10.06
34,0,10.05
35,0,10.06
36,0,10.07
37,0,10.06
38,0,10.06
39,0,10.05
40,0,10.06
41,0,10.06
42,0,10.07
43,0,10.06
44,0,10.06
45,0,10.06
46,0,10.06
47,0,10.07
48,0,10.05
49,0,10.05
50,0,10.06
51,0,10.06
52,0,10.05
53,0,10.06
54,0,10.07
55,0,10.06
56,0,10.06
57,0,10.05
58,0,10.06
59,0,10.07
60,0,10.05
61,0,10.05
62,0,10.05
63,0,10.07
64,0,10.06
65,0,10.06
66,0,10.07
67,0,10.06
68,0,10.06
69,0,10.06
70,0,10.05
71,0,10.06
72,0,10.05
73,0,10.05
74,0,10.05
75,0,10.07
76,0,10.05
77,0,10.07
78,0,10.05
79,0,10.06
80,0,10.05
81,0,10.06
82,0,10.06
83,0,10.07
84,0,10.05
85,0,10.07
86,0,10.07
87,0,10.06
88,0,10.06
89,0,10.05
90,0,10.06
91,0,10.06
92,0,10.06
93,0,10.06
94,0,10.07
95,0,10.06
96,0,10.06
97,0,10.05
98,0,10.05
99,0,10.06
100,0,10.06
101,0,10.04
102,0,10.05
103,0,10.05
104,0,10.07
105,0,10.07
106,0,10.07
107,0,10.06
108,0,10.06
109,0,10.06
110,0,10.07
111,0,10.06
112,0,10.06
113,0,10.05
114,0,10.05
115,0,10.06
116,0,10.05
117,0,10.06
118,0,10.05
119,0,10.06
120,0,10.05
121,0,10.07
122,0,10.06
123,0,10.06
124,0,10.05
125,0,10.06
126,0,10.05
127,0,10.07
128,0,10.06
129,0,10.06
130,0,10.07
131,0,10.05
132,0,10.06
133,0,10.05
134,0,10.06
135,0,10.05
136,0,10.06
137,0,10.07
138,0,10.06
139,0,10.05
140,0,10.06
141,0,10.06
142,0,10.05
143,0,10.06
144,0,10.05
145,0,10.06
146,0,10.06
147,0,10.06
148,0,10.06
149,0,10.06
150,0,10.06
151,0,10.07
152,0,10.05
153,0,10.05
154,0,10.06
155,0,10.06
156,0,10.06
157,0,10.05
158,0,10.06
159,0,10.06
160,0,10.06
161,0,10.07
162,0,10.05
163,0,10.04
164,0,10.05
165,0,10.06
166,0,10.05
167,0,10.06
168,0,10.05
169,0,10.06
170,0,10.06
171,0,10.06
172,0,10.05
173,0,10.05
174,0,10.06
175,0,10.07
176,0,10.06
177,0,10.06
178,0,10.06
179,0,10.06
180,0,10.05
181,0,10.06
182,0,10.06
183,0,10.06
184,0,10.06
185,0,10.06
186,0,10.06
187,0,10.06
188,0,10.06
189,0,10.06
190,0,10.06
191,0,10.06
192,0,10.06
193,0,10.04
194,0,10.06
195,0,10.07
196,0,10.07
197,0,10.05
198,0,10.05
199,0,10.05
0,0,10.06
1,0,10.06
2,0,10.06
3,0,10.06
4,0,10.07
5,0,10.05
6,0,10.04
7,0,10.05
8,0,10.06
9,0,10.06
10,0,10.06
11,0,10.15
12,0,10.04
13,0,10.05
14,0,10.05
15,0,10.05
16,0,10.05
17,0,10.05
18,0,10.05
19,0,10.07
20,0,10.06
21,0,10.07
22,0,10.06
23,0,10.07
24,0,10.05
25,0,10.05
26,0,10.07
27,0,10.05
28,0,10.06
29,0,10.07
30,0,10.06
31,0,10.04
32,0,10.07
33,0,10.05
34,0,10.06
35,0,10.04
36,0,10.06
37,0,10.07
38,0,10.05
39,0,10.06
40,0,10.06
41,0,10.08
42,0,10.05
43,0,10.08
44,0,10.07
45,0,10.07
46,0,10.06
47,0,10.07
48,0,10.07
49,0,10.06
50,0,10.05
51,0,10.06
52,0,10.05
53,0,10.07
54,0,10.07
55,0,10.06
56,0,10.06
57,0,10.06
58,0,10.06
59,0,10.06
60,0,10.06
61,0,10.06
62,0,10.06
63,0,10.07
64,0,10.07
65,0,10.05
66,0,10.06
67,0,10.07
68,0,10.06
69,0,10.06
70,0,10.06
71,0,10.07
72,0,10.07
73,0,10.06
74,0,10.06
75,0,10.06
76,0,10.06
77,0,10.06
78,0,10.06
79,0,10.07
80,0,10.06
81,0,10.07
82,0,10.07
83,0,10.06
84,0,10.06
85,0,10.06
86,0,10.06
87,0,10.06
88,0,10.06
89,0,10.06
90,0,10.06
91,0,10.05
92,0,10.05
93,0,10.07
94,0,10.06
95,0,10.07
96,0,10.05
97,0,10.07
98,0,10.06
99,0,10.05
100,0,10.06
101,0,10.06
102,0,10.06
103,0,10.06
104,0,10.06
105,0,10.06
106,0,10.07
107,0,10.06
108,0,10.06
109,0,10.07
110,0,10.06
111,0,10.05
112,0,10.06
113,0,10.05
114,0,10.06
115,0,10.06
116,0,10.06
117,0,10.06
118,0,10.05
119,0,10.06
120,0,10.06
121,0,10.07
122,0,10.06
123,0,10.06
124,0,10.07
125,0,10.07
126,0,10.06
127,0,10.05
128,0,10.06
129,0,10.05
130,0,10.07
131,0,10.06
132,0,10.06
133,0,10.07
134,0,10.05
135,0,10.07
136,0,10.07
137,0,10.0
138,0,10.06
139,0,10.06
140,0,10.05
141,0,10.06
142,0,10.05
143,0,10.06
144,0,10.06
145,0,10.06
146,0,10.05
147,0,10.07
148,0,10.05
149,0,10.07
150,0,10.03
151,0,10.05
152,0,10.06
153,0,10.06
154,0,10.06
155,0,10.06
156,0,10.07
157,0,10.06
158,0,10.07
159,0,10.06
160,0,10.06
161,0,10.07
162,0,10.06
163,0,10.05
164,0,10.06
165,0,10.07
166,0,10.05
167,0,10.05
168,0,10.07
169,0,10.06
170,0,10.06
171,0,10.06
172,0,10.05
173,0,10.06
174,0,10.06
175,0,10.07
176,0,10.06
177,0,10.05
178,0,10.06
179,0,10.05
180,0,10.05
181,0,10.06
182,0,10.06
183,0,10.05
184,0,10.07
185,0,10.06
186,0,10.07
187,0,10.06
188,0,10.06
189,0,10.06
190,0,10.06
191,0,10.06
192,0,10.07
193,0,10.07
194,0,10.06
195,0,10.06
196,0,10.05
197,0,10.06
198,0,10.06
199,0,10.06
0,0,10.06
1,0,10.06
2,0,10.06
3,0,10.05
4,0,10.07
5,0,10.06
6,0,10.07
7,0,10.06
8,0,10.06
9,0,10.06
10,0,10.06
11,0,10.05
12,0,10.07
13,0,10.06
14,0,10.06
15,0,10.05
16,0,10.05
17,0,10.06
18,0,10.06
19,0,10.07
20,0,10.06
21,0,10.07
22,0,10.06
23,0,10.06
24,0,10.05
25,0,10.06
26,0,10.05
27,0,10.06
28,0,10.06
29,0,10.05
30,0,10.05
31,0,10.06
32,0,10.05
33,0,10.07
34,0,10.07
35,0,10.05
36,0,10.06
37,0,10.06
38,0,10.07
39,0,10.06
40,0,10.06
41,0,10.05
42,0,10.05
43,0,10.06
44,0,10.07
45,0,10.06
46,0,10.06
47,0,10.07
48,0,10.06
49,0,10.06
50,0,10.06
51,0,10.07
52,0,10.06
53,0,10.06
54,0,10.06
55,0,10.05
56,0,10.06
57,0,10.06
58,0,10.07
59,0,10.05
60,0,10.05
61,0,10.07
62,0,10.07
63,0,10.05
64,0,10.07
65,0,10.06
66,0,10.05
67,0,10.06
68,0,10.07
69,0,10.06
70,0,10.05
71,0,10.07
72,0,10.07
73,0,10.05
74,0,10.06
75,0,10.07
76,0,10.06
77,0,10.06
78,0,10.06
79,0,10.06
80,0,10.06
81,0,10.06
82,0,10.06
83,0,10.06
84,0,10.06
85,0,10.06
86,0,10.06
87,0,10.06
88,0,10.06
89,0,10.05
90,0,10.05
91,0,10.05
92,0,10.06
93,0,10.06
94,0,10.05
95,0,10.05
96,0,10.06
97,0,10.05
98,0,10.06
99,0,10.05
100,0,10.05
101,0,10.08
102,0,10.05
103,0,10.06
104,0,10.06
105,0,10.06
106,0,10.05
107,0,10.06
108,0,10.06
109,0,10.06
110,0,10.06
111,0,10.05
112,0,10.06
113,0,10.05
114,0,10.05
115,0,10.06
116,0,10.06
117,0,10.06
118,0,10.07
119,0,10.08
120,0,10.05
121,0,10.06
122,0,10.05
123,0,10.06
124,0,10.05
125,0,10.07
126,0,10.07
127,0,10.07
128,0,10.05
129,0,10.06
130,0,10.05
131,0,10.06
132,0,10.06
133,0,10.09
134,0,10.04
135,0,10.03
136,0,10.05
137,0,10.05
138,0,10.07
139,0,10.05
140,0,10.07
141,0,10.05
142,0,10.07
143,0,10.06
144,0,10.05
145,0,10.05
146,0,10.06
147,0,10.04
148,0,10.05
149,0,10.06
150,0,10.06
151,0,10.08
152,0,10.06
153,0,10.06
154,0,10.05
155,0,10.06
156,0,10.05
157,0,10.06
158,0,10.05
159,0,10.09
160,0,10.05
161,0,10.06
162,0,10.05
163,0,10.06
164,0,10.05
165,0,10.07
166,0,10.05
167,0,10.07
168,0,10.08
169,0,10.05
170,0,10.06
171,0,10.06
172,0,10.06
173,0,10.06
174,0,10.05
175,0,10.06
176,0,10.06
177,0,10.01
178,0,10.1
179,0,10.09
180,0,10.05
181,0,10.06
182,0,10.06
183,0,10.08
184,0,10.06
185,0,10.05
186,0,10.07
187,0,10.06
188,0,10.08
189,0,10.06
190,0,10.06
191,0,10.03
192,0,10.08
193,0,10.05
194,0,10.05
195,0,10.04
196,0,10.04
197,0,10.06
198,0,10.05
199,0,10.06
0,0,10.06
1,0,10.06
2,0,10.05
3,0,10.07
4,0,10.04
5,0,10.07
6,0,10.06
7,0,10.07
8,0,10.05
9,0,10.06
10,0,10.06
11,0,10.06
12,0,10.07
13,0,10.05
14,0,10.05
15,0,10.05
16,0,10.06
17,0,10.05
18,0,10.07
19,0,10.06
20,0,10.06
21,0,10.07
22,0,10.06
23,0,10.05
24,0,10.05
25,0,10.06
26,0,10.06
27,0,10.05
28,0,10.07
29,0,10.06
30,0,10.06
31,0,10.06
32,0,10.06
33,0,10.06
34,0,10.06
35,0,10.05
36,0,10.06
37,0,10.07
38,0,10.06
39,0,10.07
40,0,10.05
41,0,10.05
42,0,10.06
43,0,10.06
44,0,10.05
45,0,10.06
46,0,10.06
47,0,10.06
48,0,10.06
49,0,10.05
50,0,10.06
51,0,10.06
52,0,10.06
53,0,10.06
54,0,10.06
55,0,10.06
56,0,10.06
57,0,10.07
58,0,10.06
59,0,10.07
60,0,10.06
61,0,10.05
62,0,10.07
63,0,10.07
64,0,10.07
65,0,10.07
66,0,10.06
67,0,10.07
68,0,10.06
69,0,10.05
70,0,10.06
71,0,10.05
72,0,10.06
73,0,10.06
74,0,10.06
75,0,10.06
76,0,10.05
77,0,10.06
78,0,10.07
79,0,10.06
80,0,10.06
81,0,10.07
82,0,10.05
83,0,10.06
84,0,10.06
85,0,10.08
86,0,10.05
87,0,10.06
88,0,10.06
89,0,10.05
90,0,10.06
91,0,10.05
92,0,10.05
93,0,10.06
94,0,10.07
95,0,10.06
96,0,10.06
97,0,10.06
98,0,10.06
99,0,10.06
100,0,10.05
101,0,10.06
102,0,10.05
103,0,10.07
104,0,10.06
105,0,10.06
106,0,10.07
107,0,10.06
108,0,10.06
109,0,10.07
110,0,10.06
111,0,10.06
112,0,10.06
113,0,10.06
114,0,10.06
115,0,10.05
116,0,10.06
117,0,10.05
118,0,10.06
119,0,10.05
120,0,10.06
121,0,10.06
122,0,10.06
123,0,10.06
124,0,10.07
125,0,10.07
126,0,10.06
127,0,10.06
128,0,10.06
129,0,10.07
130,0,10.05
131,0,10.06
132,0,10.06
133,0,10.06
134,0,10.06
135,0,10.06
136,0,10.06
137,0,10.05
138,0,10.06
139,0,10.04
140,0,10.06
141,0,10.06
142,0,10.07
143,0,10.06
144,0,10.06
145,0,10.06
146,0,10.06
147,0,10.04
148,0,10.07
149,0,10.05
150,0,10.06
151,0,10.07
152,0,10.06
153,0,10.06
154,0,10.05
155,0,10.07
156,0,10.05
157,0,10.06
158,0,10.06
159,0,10.06
160,0,10.07
161,0,10.06
162,0,10.05
163,0,10.05
164,0,10.06
165,0,10.06
166,0,10.06
167,0,10.06
168,0,10.06
169,0,10.06
170,0,10.06
171,0,10.05
172,0,10.06
173,0,10.07
174,0,10.06
175,0,10.07
176,0,10.05
177,0,10.06
178,0,10.05
179,0,10.05
180,0,10.06
181,0,10.05
182,0,10.06
183,0,10.07
184,0,10.05
185,0,10.05
186,0,10.05
187,0,10.06
188,0,10.05
189,0,10.06
190,0,10.07
191,0,10.04
192,0,10.06
193,0,10.05
194,0,10.07
195,0,10.06
196,0,10.07
197,0,10.05
198,0,10.05
199,0,10.06
0,0,10.06
1,0,10.06
2,0,10.06
3,0,10.06
4,0,10.06
5,0,10.05
6,0,10.06
7,0,10.06
8,0,10.06
9,0,10.06
10,0,10.06
11,0,10.03
12,0,10.03
13,0,10.05
14,0,10.08
15,0,10.06
16,0,10.12
17,0,10.05
18,0,10.07
19,0,10.04
20,0,10.06
21,0,10.07
22,0,10.07
23,0,10.05
24,0,10.05
25,0,10.09
26,0,10.07
27,0,10.04
28,0,10.03
29,0,10.07
30,0,10.06
31,0,10.07
32,0,10.06
33,0,10.07
34,0,10.06
35,0,10.06
36,0,10.06
37,0,10.05
38,0,10.05
39,0,10.05
40,0,10.06
41,0,10.05
42,0,10.06
43,0,10.06
44,0,10.06
45,0,10.06
46,0,10.06
47,0,10.06
48,0,10.06
49,0,10.06
50,0,10.06
51,0,10.05
52,0,10.06
53,0,10.06
54,0,10.05
55,0,10.05
56,0,10.04
57,0,10.06
58,0,10.06
59,0,10.07
60,0,10.06
61,0,10.06
62,0,10.07
63,0,10.07
64,0,10.07
65,0,10.05
66,0,10.04
67,0,10.06
68,0,10.04
69,0,10.06
70,0,10.07
71,0,10.05
72,0,10.05
73,0,10.05
74,0,10.06
75,0,10.07
76,0,10.05
77,0,10.05
78,0,10.05
79,0,10.05
80,0,10.05
81,0,10.06
82,0,10.06
83,0,10.07
84,0,10.06
85,0,10.06
86,0,10.05
87,0,10.06
88,0,10.05
89,0,10.06
90,0,10.06
91,0,10.05
92,0,10.07
93,0,10.05
94,0,10.07
95,0,10.05
96,0,10.05
97,0,10.06
98,0,10.02
99,0,10.06
100,0,10.05
101,0,10.06
102,0,10.04
103,0,10.05
104,0,10.05
105,0,10.07
106,0,10.06
107,0,10.07
108,0,10.05
109,0,10.06
110,0,10.06
111,0,10.06
112,0,10.06
113,0,10.06
114,0,10.07
115,0,10.05
116,0,10.07
117,0,10.05
118,0,10.05
119,0,10.05
120,0,10.06
121,0,10.05
122,0,10.06
123,0,10.06
124,0,10.06
125,0,10.06
126,0,10.05
127,0,10.06
128,0,10.05
129,0,10.06
130,0,10.06
131,0,10.06
132,0,10.05
133,0,10.06
134,0,10.05
135,0,10.07
136,0,10.05
137,0,10.06
138,0,10.06
139,0,10.06
140,0,10.06
141,0,10.06
142,0,10.07
143,0,10.05
144,0,10.06
145,0,10.05
146,0,10.06
147,0,10.05
148,0,10.07
149,0,10.06
150,0,10.06
151,0,10.06
152,0,10.05
153,0,10.07
154,0,10.06
155,0,10.07
156,0,10.05
157,0,10.06
158,0,10.05
159,0,10.06
160,0,10.04
161,0,10.07
162,0,10.05
163,0,10.06
164,0,10.06
165,0,10.06
166,0,10.06
167,0,10.06
168,0,10.06
169,0,10.05
170,0,10.06
171,0,10.05
172,0,10.05
173,0,10.06
174,0,10.07
175,0,10.05
176,0,10.06
177,0,10.04
178,0,10.07
179,0,10.06
180,0,10.06
181,0,10.06
182,0,10.05
183,0,10.07
184,0,10.05
185,0,10.07
186,0,10.06
187,0,10.05
188,0,10.06
189,0,10.06
190,0,10.05
191,0,10.06
192,0,10.05
193,0,10.05
194,0,10.06
195,0,10.05
196,0,10.06
197,0,10.06
198,0,10.07
199,0,10.05
0,0,10.07
1,0,10.05
2,0,10.07
3,0,10.06
4,0,10.05
5,0,10.06
6,0,10.06
7,0,10.07
8,0,10.06
9,0,10.06
10,0,10.05
11,0,10.07
12,0,10.06
13,0,10.07
14,0,10.06
15,0,10.06
16,0,10.05
17,0,10.07
18,0,10.06
19,0,10.05
20,0,10.07
21,0,10.05
22,0,10.06
23,0,10.06
24,0,10.08
25,0,10.06
26,0,10.06
27,0,10.05
28,0,10.07
29,0,10.06
30,0,10.05
31,0,10.06
32,0,10.04
33,0,10.06
34,0,10.06
35,0,10.07
36,0,10.05
37,0,10.06
38,0,10.06
39,0,10.06
40,0,10.07
41,0,10.06
42,0,10.06
43,0,10.05
44,0,10.06
45,0,10.05
46,0,10.06
47,0,10.06
48,0,10.06
49,0,10.05
50,0,10.06
51,0,10.05
52,0,10.06
53,0,10.06
54,0,10.06
55,0,10.05
56,0,10.05
57,0,10.07
58,0,10.05
59,0,10.05
60,0,10.06
61,0,10.07
62,0,10.06
63,0,10.07
64,0,10.05
65,0,10.07
66,0,10.07
67,0,10.05
68,0,10.06
69,0,10.04
70,0,10.06
71,0,10.06
72,0,10.06
73,0,10.06
74,0,10.07
75,0,10.05
76,0,10.06
77,0,10.05
78,0,10.06
79,0,10.06
80,0,10.06
81,0,10.05
82,0,10.06
83,0,10.07
84,0,10.06
85,0,10.06
86,0,10.05
87,0,10.05
88,0,10.06
89,0,10.05
90,0,10.06
91,0,10.07
92,0,10.06
93,0,10.06
94,0,10.06
95,0,10.06
96,0,10.06
97,0,10.06
98,0,10.05
99,0,10.05
0,0,10.05
1,0,10.05
2,0,10.04
3,0,10.08
4,0,10.07
5,0,10.06
6,0,10.04
7,0,10.05
8,0,10.05
9,0,10.05
10,0,10.06
11,0,10.06
12,0,10.06
13,0,10.06
14,0,10.06
15,0,10.05
16,0,10.05
17,0,10.05
18,0,10.06
19,0,10.05
20,0,10.06
21,0,10.06
22,0,10.05
23,0,10.06
24,0,10.05
25,0,10.05
26,0,10.06
27,0,10.07
28,0,10.05
29,0,10.05
30,0,10.06
31,0,10.06
32,0,10.06
33,0,10.06
34,0,10.06
35,0,10.05
36,0,10.06
37,0,10.05
38,0,10.06
38,0,10.06
40,0,10.06
41,0,10.07
42,0,10.04
43,0,10.05
44,0,10.07
45,0,10.07
46,0,10.06
47,0,10.06
48,0,10.06
49,0,10.05
50,0,10.05
51,0,10.05
52,0,10.07
53,0,10.06
54,0,10.04
55,0,10.05
56,0,10.04
57,0,10.06
58,0,10.06
59,0,10.06
60,0,10.07
61,0,10.05
62,0,10.05
63,0,10.05
64,0,10.06
65,0,10.06
66,0,10.05
67,0,10.06
68,0,10.06
69,0,10.05
70,0,10.05
71,0,10.06
72,0,10.05
73,0,10.07
74,0,10.06
75,0,10.05
76,0,10.06
77,0,10.06
78,0,10.06
79,0,10.07
80,0,10.06
81,0,10.06
82,0,10.06
83,0,10.06
84,0,10.05
85,0,10.06
86,0,10.06
87,0,10.06
88,0,10.06
89,0,10.06
90,0,10.06
91,0,10.05
92,0,10.06
93,0,10.07
94,0,10.06
95,0,10.06
96,0,10.05
97,0,10.06
98,0,10.06
99,0,10.06
100,0,10.06
101,0,10.06
102,0,10.06
103,0,10.05
104,0,10.06
105,0,10.07
106,0,10.06
107,0,10.06
108,0,10.06
109,0,10.05
110,0,10.06
111,0,10.06
112,0,10.07
113,0,10.06
114,0,10.06
115,0,10.05
116,0,10.05
117,0,10.06
118,0,10.06
119,0,10.06
120,0,10.06
121,0,10.06
122,0,10.05
123,0,10.06
124,0,10.05
125,0,10.06
126,0,10.07
127,0,10.06
128,0,10.06
129,0,10.04
130,0,10.06
131,0,10.06
132,0,10.05
133,0,10.07
134,0,10.04
135,0,10.06
136,0,10.07
137,0,10.05
138,0,10.06
139,0,10.06
140,0,10.06
141,0,10.06
142,0,10.06
143,0,10.06
144,0,10.05
145,0,10.06
146,0,10.06
147,0,10.06
148,0,10.06
149,0,10.06
150,0,10.05
151,0,10.06
152,0,10.05
153,0,10.07
154,0,10.06
155,0,10.07
156,0,10.05
157,0,10.05
158,0,10.06
159,0,10.07
160,0,10.05
161,0,10.06
162,0,10.05
163,0,10.08
164,0,10.05
165,0,10.07
166,0,10.06
167,0,10.06
168,0,10.05
169,0,10.06
170,0,10.05
171,0,10.07
172,0,10.06
173,0,10.05
174,0,10.07
175,0,10.06
176,0,10.06
177,0,10.06
178,0,10.05
179,0,10.06
180,0,10.06
181,0,10.06
182,0,10.06
183,0,10.06
184,0,10.05
185,0,10.06
186,0,10.06
187,0,10.05
188,0,10.06
189,0,10.06
190,0,10.06
191,0,10.05
192,0,10.06
193,0,10.06
194,0,10.06
195,0,10.05
196,0,10.05
197,0,10.06
198,0,10.05
199,0,10.06
200,0,10.05
201,0,10.06
202,0,10.05
203,0,10.06
204,0,10.04
205,0,10.05
206,0,10.06
207,0,10.06
208,0,10.05
209,0,10.06
210,0,10.05
211,0,10.04
212,0,10.05
213,0,10.05
214,0,10.06
215,0,10.05
216,0,10.06
217,0,10.05
218,0,10.05
219,0,10.06
220,0,10.06
221,0,10.06
222,0,10.07
223,0,10.07
224,0,10.05
225,0,10.05
226,0,10.06
227,0,10.06
228,0,10.06
229,0,10.05
230,0,10.05
231,0,10.06
232,0,10.06
233,0,10.05
234,0,10.05
235,0,10.05
236,0,10.06
237,0,10.07
238,0,10.05
239,0,10.05
240,0,10.06
241,0,10.06
242,0,10.06
243,0,10.05
244,0,10.06
245,0,10.06
246,0,10.05
247,0,10.05
248,0,10.06
249,0,10.07
250,0,10.05
251,0,10.07
252,0,10.05
253,0,10.06
254,0,10.04
255,0,10.06
256,0,10.05
257,0,10.05
258,0,10.06
258,0,10.05
260,0,10.06
261,0,10.06
262,0,10.06
263,0,10.05
264,0,10.06
265,0,10.06
266,0,10.06
267,0,10.06
268,0,10.05
269,0,10.06
270,0,10.05
271,0,10.06
272,0,10.05
273,0,10.05
274,0,10.06
275,0,10.06
276,0,10.06
277,0,10.07
278,0,10.06
279,0,10.05
280,0,10.05
281,0,10.05
282,0,10.07
283,0,10.05
284,0,10.06
285,0,10.08
286,0,10.05
287,0,10.07
288,0,10.05
289,0,10.06
290,0,10.06
291,0,10.06
292,0,10.05
293,0,10.05
294,0,10.05
295,0,10.06
296,0,10.06
297,0,10.05
298,0,10.04
299,0,10.06
300,0,10.06
301,0,10.05
302,0,10.05
303,0,10.06
304,0,10.06
305,0,10.05
306,0,10.06
307,0,10.09
308,0,10.08
309,0,10.04
310,0,10.05
311,0,10.05
312,0,10.06
313,0,10.05
314,0,10.06
315,0,10.06
316,0,10.07
317,0,10.05
318,0,10.05
319,0,10.05
320,0,10.06
321,0,10.05
322,0,10.05
323,0,10.06
324,0,10.06
325,0,10.05
326,0,10.08
327,0,10.03
328,0,10.06
329,0,10.07
330,0,10.05
331,0,10.05
332,0,10.03
333,0,10.08
334,0,10.05
335,0,10.06
336,0,10.06
337,0,10.06
338,0,10.05
339,0,10.05
340,0,10.06
341,0,10.05
342,0,10.06
343,0,10.05
344,0,10.06
345,0,10.06
346,0,10.05
347,0,10.05
348,0,10.05
349,0,10.06
350,0,10.05
351,0,10.05
352,0,10.06
353,0,10.07
354,0,10.05
355,0,10.06
356,0,10.05
357,0,10.04
358,0,10.05
359,0,10.06
360,0,10.06
361,0,10.05
362,0,10.05
363,0,10.06
364,0,10.06
365,0,10.05
366,0,10.06
367,0,10.07
368,0,10.06
369,0,10.05
370,0,10.06
371,0,10.07
372,0,10.06
373,0,10.05
374,0,10.05
375,0,10.07
376,0,10.06
377,0,10.05
378,0,10.06
379,0,10.06
380,0,10.07
381,0,10.06
382,0,10.06
383,0,10.06
384,0,10.07
385,0,10.05
386,0,10.05
387,0,10.06
388,0,10.06
389,0,10.07
390,0,10.06
391,0,10.05
392,0,10.07
393,0,10.07
394,0,10.06
395,0,10.05
396,0,10.05
397,0,10.06
398,0,10.05
399,0,10.06
0,0,10.06
1,0,10.06
1,0,10.07
3,0,10.05
4,0,10.05
5,0,10.06
6,0,10.04
7,0,10.09
8,0,10.05
9,0,10.05
10,0,10.06
10,0,10.06
12,0,10.07
13,0,10.02
14,0,10.07
15,0,9.65
16,0,10.15
17,0,9.98
18,0,10.07
19,0,10.04
20,0,10.07
21,0,10.05
22,0,10.02
23,0,10.06
24,0,10.08
25,0,10.08
26,0,10.18
27,0,10.01
28,0,10.03
29,0,10.07
30,0,10.04
31,0,10.05
32,0,10.02
33,0,10.07
34,0,10.13
35,0,10.03
36,0,10.06
37,0,10.07
38,0,9.98
39,0,10.06
40,0,10.02
41,0,10.04
42,0,10.07
43,0,10.06
44,0,9.95
45,0,10.04
46,0,9.95
47,0,10.15
48,0,9.96
49,0,10.08
50,0,10.07
51,0,10.07
52,0,10.08
53,0,10.07
54,0,10.02
55,0,10.01
56,0,10.05
57,0,10.05
58,0,10.07
59,0,10.01
60,0,10.08
61,0,10.01
62,0,10.08
63,0,10.07
64,0,10.03
65,0,10.08
66,0,10.06
67,0,10.08
68,0,10.05
69,0,10.05
70,0,10.05
71,0,10.05
72,0,10.07
73,0,10.05
73,0,10.1
74,0,10.09
76,0,10.07
77,0,10.02
78,0,10.06
77,0,10.05
80,0,10.04
81,0,10.03
82,0,10.05
83,0,10.01
84,0,10.06
85,0,10.01
86,0,10.08
87,0,10.06
88,0,10.04
89,0,10.05
90,0,10.06
91,0,10.05
92,0,10.05
93,0,10.06
94,0,10.06
95,0,10.05
95,0,10.06
97,0,10.05
98,0,10.06
99,0,10.06
99,0,10.05
101,0,10.07
102,0,10.06
103,0,10.06
104,0,10.06
105,0,10.06
106,0,10.06
107,0,10.06
108,0,10.06
109,0,10.05
110,0,10.05
111,0,10.06
112,0,10.05
113,0,10.06
114,0,10.06
115,0,10.06
116,0,10.06
117,0,10.06
118,0,10.06
119,0,10.06
120,0,10.06
121,0,10.06
122,0,10.05
123,0,10.07
124,0,10.05
125,0,10.05
126,0,10.07
127,0,10.05
128,0,10.06
129,0,10.07
130,0,10.06
131,0,10.05
132,0,10.06
133,0,10.05
134,0,10.05
135,0,10.06
136,0,10.05
137,0,10.05
138,0,10.06
139,0,10.06
140,0,10.05
141,0,10.06
142,0,10.05
143,0,10.05
144,0,10.06
145,0,10.06
146,0,10.06
147,0,10.06
148,0,10.06
149,0,10.06
150,0,10.05
151,0,10.05
152,0,10.06
153,0,10.06
153,0,10.05
155,0,10.06
156,0,10.06
157,0,10.06
158,0,10.06
159,0,10.05
160,0,10.06
161,0,10.07
162,0,10.06
163,0,10.07
164,0,10.07
0,0,10.05
1,0,10.04
2,0,10.06
3,0,10.05
4,0,10.05
5,0,10.05
6,0,10.05
7,0,10.06
8,0,10.05
9,0,10.01
10,0,10.07
11,0,10.08
12,0,10.06
13,0,10.11
14,0,10.05
14,0,10.06
16,0,10.07
17,0,10.06
18,0,10.05
19,0,10.09
20,0,10.05
21,0,10.05
22,0,10.06
23,0,10.08
24,0,10.06
25,0,10.06
26,0,10.06
27,0,10.04
28,0,10.05
29,0,10.12
30,0,10.07
31,0,10.05
32,0,10.04
33,0,10.07
34,0,10.09
35,0,10.05
36,0,10.07
37,0,10.04
38,0,10.06
39,0,10.06
40,0,10.06
41,0,10.06
42,0,10.07
43,0,10.06
44,0,10.06
45,0,10.07
46,0,10.06
47,0,10.05
48,0,10.07
49,0,10.06
50,0,10.0
51,0,10.0
52,0,10.05
53,0,10.02
54,0,10.0
55,0,10.05
56,0,10.05
57,0,10.09
58,0,10.02
59,0,10.04
60,0,10.04
61,0,10.07
62,0,10.1
63,0,10.05
64,0,10.09
65,0,10.01
66,0,10.05
67,0,10.08
68,0,10.06
69,0,10.05
70,0,10.05
71,0,10.07
72,0,10.06
73,0,10.07
74,0,10.05
75,0,10.06
76,0,10.06
77,0,10.06
78,0,10.07
79,0,10.12
80,0,10.07
81,0,10.07
82,0,10.07
83,0,10.08
84,0,10.02
85,0,10.04
86,0,10.13
87,0,10.05
88,0,10.1
89,0,10.07
90,0,10.05
91,0,10.05
92,0,10.05
93,0,10.06
94,0,10.06
95,0,10.05
96,0,10.06
97,0,10.06
98,0,10.05
99,0,10.04
100,0,10.06
101,0,10.05
102,0,10.19
103,0,10.02
104,0,9.99
105,0,10.06
106,0,10.07
107,0,10.06
108,0,10.07
109,0,10.05
110,0,10.05
111,0,10.06
112,0,10.06
113,0,10.05
114,0,10.05
115,0,10.06
116,0,10.06
117,0,10.05
118,0,10.05
119,0,10.06
120,0,10.05
121,0,10.05
122,0,10.06
123,0,10.05
124,0,10.07
125,0,10.06
126,0,10.04
127,0,10.06
128,0,10.05
129,0,10.05
130,0,10.06
131,0,10.04
132,0,10.06
133,0,10.06
134,0,10.06
135,0,10.06
136,0,10.05
137,0,10.06
138,0,10.06
139,0,10.06
140,0,10.06
141,0,10.07
142,0,10.06
143,0,10.05
144,0,10.06
145,0,10.05
146,0,10.06
147,0,10.05
148,0,10.07
149,0,10.05
150,0,10.06
151,0,10.06
152,0,10.08
153,0,10.05
154,0,10.06
155,0,10.07
156,0,10.05
157,0,10.06
158,0,10.06
159,0,10.05
160,0,10.05
161,0,10.06
162,0,10.06
163,0,10.06
164,0,10.05
165,0,10.06
166,0,10.06
167,0,10.06
168,0,10.06
169,0,10.06
170,0,10.06
171,0,10.05
172,0,10.05
173,0,10.06
174,0,10.06
175,0,10.06
176,0,10.06
177,0,10.05
177,0,10.05
179,0,10.06
180,0,10.05
181,0,10.06
182,0,10.06
183,0,10.06
184,0,10.05
185,0,10.06
186,0,10.06
187,0,10.07
188,0,10.05
189,0,10.06
190,0,10.05
191,0,10.06
192,0,10.07
193,0,10.05
194,0,10.06
195,0,10.05
196,0,10.06
197,0,10.05
198,0,10.06
199,0,10.05
0,0,10.06
1,0,10.06
2,0,10.06
3,0,10.05
4,0,10.06
5,0,10.05
6,0,10.06
7,0,10.06
8,0,10.05
9,0,10.06
10,0,10.06
11,0,10.04
12,0,10.05
13,0,10.05
14,0,10.05
15,0,10.04
16,0,10.06
17,0,10.06
18,0,10.05
19,0,10.06
20,0,10.04
21,0,10.06
22,0,10.06
23,0,10.06
24,0,10.07
25,0,10.06
26,0,10.06
27,0,10.06
28,0,10.05
29,0,10.07
30,0,10.07
31,0,10.06
32,0,10.06
33,0,10.05
34,0,10.05
35,0,10.07
36,0,10.05
37,0,10.07
38,0,10.06
39,0,10.06
40,0,10.06
41,0,10.04
42,0,10.07
43,0,10.05
44,0,10.06
45,0,10.05
46,0,10.06
47,0,10.07
48,0,10.06
49,0,10.06
50,0,10.06
51,0,10.06
52,0,10.06
53,0,10.04
54,0,10.06
55,0,10.07
56,0,10.04
57,0,10.06
58,0,10.06
59,0,10.06
60,0,10.06
61,0,10.06
62,0,10.05
63,0,10.06
64,0,10.06
65,0,10.06
66,0,10.05
67,0,10.05
68,0,10.06
69,0,10.07
70,0,10.06
71,0,10.05
72,0,10.07
73,0,10.05
74,0,10.04
75,0,10.06
76,0,10.05
77,0,10.05
78,0,10.07
79,0,10.06
80,0,10.06
81,0,10.06
82,0,10.04
83,0,10.07
84,0,10.04
85,0,10.08
86,0,10.06
87,0,10.06
88,0,10.05
89,0,10.0
90,0,10.07
91,0,10.06
92,0,10.06
93,0,10.06
94,0,10.07
95,0,10.06
96,0,10.06
97,0,10.07
98,0,10.05
99,0,10.05
100,0,10.06
101,0,10.06
102,0,10.05
103,0,10.06
104,0,10.06
105,0,10.06
106,0,10.05
107,0,10.06
108,0,10.06
109,0,10.06
110,0,10.05
111,0,10.08
112,0,10.05
113,0,10.07
114,0,10.06
115,0,10.05
116,0,10.05
117,0,10.06
118,0,10.07
119,0,10.06
120,0,10.05
121,0,10.03
122,0,10.06
122,0,10.06
124,0,10.05
125,0,10.06
126,0,10.06
127,0,10.06
128,0,10.05
129,0,10.05
130,0,10.05
131,0,10.07
132,0,10.05
133,0,10.06
134,0,10.06
135,0,10.06
136,0,10.05
137,0,10.06
138,0,10.05
139,0,10.05
140,0,10.06
141,0,10.05
142,0,10.06
143,0,10.06
144,0,10.06
145,0,10.05
146,0,10.07
147,0,10.04
148,0,10.05
149,0,10.05
150,0,10.05
151,0,10.07
152,0,10.06
153,0,10.05
154,0,10.06
155,0,10.06
156,0,10.07
157,0,10.07
158,0,10.06
159,0,10.07
160,0,10.05
161,0,10.06
162,0,10.06
163,0,10.06
164,0,10.05
165,0,10.06
166,0,10.05
167,0,10.05
168,0,10.06
169,0,10.06
170,0,10.05
170,0,10.06
172,0,10.06
173,0,10.06
174,0,10.06
175,0,10.05
176,0,10.05
177,0,10.06
178,0,10.06
179,0,10.07
180,0,10.07
181,0,10.05
182,0,10.06
183,0,10.06
184,0,10.05
185,0,10.06
186,0,10.06
187,0,10.05
188,0,10.06
189,0,10.05
190,0,10.06
191,0,10.06
192,0,10.06
193,0,10.06
194,0,10.06
195,0,10.05
196,0,10.06
197,0,10.06
198,0,10.06
199,0,10.06
0,0,10.06
1,0,10.05
2,0,10.06
3,0,10.06
4,0,10.06
5,0,10.05
6,0,10.07
7,0,10.04
8,0,10.06
9,0,10.06
10,0,10.05
11,0,10.06
12,0,10.03
13,0,10.02
14,0,10.05
15,0,10.05
16,0,10.05
17,0,10.06
18,0,10.06
19,0,10.05
20,0,10.07
21,0,10.06
22,0,10.06
23,0,10.06
24,0,10.07
25,0,10.06
26,0,10.06
27,0,10.06
28,0,10.05
29,0,10.05
30,0,10.06
31,0,10.06
32,0,10.07
33,0,10.06
34,0,10.06
35,0,10.06
36,0,10.06
37,0,10.06
38,0,10.06
39,0,10.06
40,0,10.06
41,0,10.06
42,0,10.06
43,0,10.06
44,0,10.06
45,0,10.06
46,0,10.06
47,0,10.07
48,0,10.06
49,0,10.06
50,0,10.06
51,0,10.06
52,0,10.06
53,0,10.06
54,0,10.05
55,0,10.05
56,0,10.07
57,0,10.06
58,0,10.06
59,0,10.06
60,0,10.06
61,0,10.07
62,0,10.06
63,0,10.06
64,0,10.05
65,0,10.07
66,0,10.06
67,0,10.05
68,0,10.06
69,0,10.05
70,0,10.05
71,0,10.05
72,0,10.05
73,0,10.06
74,0,10.05
75,0,10.07
76,0,10.05
77,0,10.06
78,0,10.05
79,0,10.06
80,0,10.06
81,0,10.07
82,0,10.06
83,0,10.05
84,0,10.06
85,0,10.05
86,0,10.05
87,0,10.06
88,0,10.06
89,0,10.06
90,0,10.05
91,0,10.05
92,0,10.05
93,0,10.07
94,0,10.06
95,0,10.06
96,0,10.05
97,0,10.06
98,0,10.04
99,0,10.06
100,0,10.06
101,0,10.06
102,0,10.05
103,0,10.06
104,0,10.05
105,0,10.05
106,0,10.06
107,0,10.06
108,0,10.06
109,0,10.05
110,0,10.06
111,0,10.06
112,0,10.06
113,0,10.06
114,0,10.05
115,0,10.06
116,0,10.06
117,0,10.07
118,0,10.06
119,0,10.05
120,0,10.04
121,0,10.05
122,0,10.07
123,0,10.06
124,0,10.07
125,0,10.06
126,0,10.06
127,0,10.05
128,0,10.07
129,0,10.05
130,0,10.05
131,0,10.06
132,0,10.07
133,0,10.07
134,0,10.06
135,0,10.06
136,0,10.06
137,0,10.06
138,0,10.06
139,0,10.05
140,0,10.05
141,0,10.06
142,0,10.06
143,0,10.06
144,0,10.06
145,0,10.05
146,0,10.07
147,0,10.06
148,0,10.07
149,0,10.06
150,0,10.06
151,0,10.06
152,0,10.06
153,0,10.06
154,0,10.06
155,0,10.06
156,0,10.06
157,0,10.06
157,0,10.06
159,0,10.05
160,0,10.06
161,0,10.06
162,0,10.05
163,0,10.06
164,0,10.06
165,0,10.05
166,0,10.06
167,0,10.06
168,0,10.06
169,0,10.06
170,0,10.06
171,0,10.06
172,0,10.06
173,0,10.06
174,0,10.07
175,0,10.06
176,0,10.05
177,0,10.06
178,0,10.06
179,0,10.06
180,0,10.05
181,0,10.06
182,0,10.05
183,0,10.06
184,0,10.05
185,0,10.06
186,0,10.06
187,0,10.05
188,0,10.05
189,0,10.07
190,0,10.06
191,0,10.05
192,0,10.06
193,0,10.05
194,0,10.06
195,0,10.05
196,0,10.06
197,0,10.07
198,0,10.06
199,0,10.06
0,0,10.07
1,0,10.05
2,0,10.06
3,0,10.06
4,0,10.05
5,0,10.06
6,0,10.06
7,0,10.06
8,0,10.06
9,0,10.05
10,0,10.04
11,0,10.06
12,0,10.06
13,0,10.06
14,0,10.06
15,0,10.05
16,0,10.05
17,0,10.06
18,0,10.05
19,0,10.07
20,0,10.06
21,0,10.06
22,0,10.05
23,0,10.04
24,0,10.06
25,0,10.06
26,0,10.06
27,0,10.06
28,0,10.06
29,0,10.06
30,0,10.05
31,0,10.07
32,0,10.05
33,0,10.05
34,0,10.06
35,0,10.06
36,0,10.06
37,0,10.06
38,0,10.05
39,0,10.06
40,0,10.06
41,0,10.05
42,0,10.05
43,0,10.06
44,0,10.06
45,0,10.05
46,0,10.06
47,0,10.05
48,0,10.06
49,0,10.06
50,0,10.06
51,0,10.06
52,0,10.05
53,0,10.06
54,0,10.05
55,0,10.06
56,0,10.05
57,0,10.05
58,0,10.05
59,0,10.06
60,0,10.06
61,0,10.06
62,0,10.05
63,0,10.06
64,0,10.06
65,0,10.06
66,0,10.05
67,0,10.06
68,0,10.06
69,0,10.05
70,0,10.05
71,0,10.06
72,0,10.06
73,0,10.05
74,0,10.05
75,0,10.06
76,0,10.05
77,0,10.06
78,0,10.06
79,0,10.06
80,0,10.06
81,0,10.05
82,0,10.04
83,0,10.05
84,0,10.06
85,0,10.06
86,0,10.05
87,0,10.06
88,0,10.06
89,0,10.05
90,0,10.05
91,0,10.05
92,0,10.05
93,0,10.06
94,0,10.08
95,0,10.05
96,0,10.06
97,0,10.07
98,0,10.06
99,0,10.05
100,0,10.05
101,0,10.04
102,0,10.05
103,0,10.06
104,0,10.05
105,0,10.07
106,0,10.06
107,0,10.06
108,0,10.06
109,0,10.06
110,0,10.05
111,0,10.06
112,0,10.06
113,0,10.05
114,0,10.06
115,0,10.06
116,0,10.06
117,0,10.06
118,0,10.06
119,0,10.06
120,0,10.06
121,0,10.06
122,0,10.06
123,0,10.06
124,0,10.06
125,0,10.06
126,0,10.06
127,0,10.05
128,0,10.06
129,0,10.06
130,0,10.06
131,0,10.05
132,0,10.07
133,0,10.05
134,0,10.06
135,0,10.06
136,0,10.06
137,0,10.07
138,0,10.05
139,0,10.06
140,0,10.06
141,0,10.05
142,0,10.06
143,0,10.06
144,0,10.06
145,0,10.05
146,0,10.06
147,0,10.06
148,0,10.06
149,0,10.06
150,0,10.06
151,0,10.06
152,0,10.06
153,0,10.05
154,0,10.06
155,0,10.05
156,0,10.07
157,0,10.07
158,0,10.05
159,0,10.06
160,0,10.05
161,0,10.06
162,0,10.06
163,0,10.06
164,0,10.05
165,0,10.06
166,0,10.06
167,0,10.05
168,0,10.07
169,0,10.06
170,0,10.06
171,0,10.05
172,0,10.05
173,0,10.05
174,0,10.06
175,0,10.05
176,0,10.06
177,0,10.06
178,0,10.05
179,0,10.06
180,0,10.06
181,0,10.04
182,0,10.07
183,0,10.05
184,0,10.06
185,0,10.05
186,0,10.06
187,0,10.06
188,0,10.05
189,0,10.07
190,0,10.06
191,0,10.06
192,0,10.06
193,0,10.06
194,0,10.06
195,0,10.06
196,0,10.06
197,0,10.06
198,0,10.05
199,0,10.04
0,0,10.05
1,0,10.06
2,0,10.06
3,0,10.05
4,0,10.05
5,0,10.06
6,0,10.06
7,0,10.06
8,0,10.05
9,0,10.05
10,0,10.06
11,0,10.06
12,0,10.06
13,0,10.06
14,0,10.06
15,0,10.06
16,0,10.06
17,0,10.06
18,0,10.05
19,0,10.05
20,0,10.06
21,0,10.05
22,0,10.06
23,0,10.05
24,0,10.06
25,0,10.05
26,0,10.05
27,0,10.05
28,0,10.05
29,0,10.06
30,0,10.05
31,0,10.06
32,0,10.06
33,0,10.06
34,0,10.06
35,0,10.05
36,0,10.07
37,0,10.07
38,0,10.06
39,0,10.05
40,0,10.05
41,0,10.06
42,0,10.05
43,0,10.06
44,0,10.06
45,0,10.06
46,0,10.06
47,0,10.06
48,0,10.06
49,0,10.06
50,0,10.06
51,0,10.07
52,0,10.05
53,0,10.06
54,0,10.06
55,0,10.05
56,0,10.06
57,0,10.06
58,0,10.05
59,0,10.05
60,0,10.07
61,0,10.05
62,0,10.06
63,0,10.05
64,0,10.06
65,0,10.06
66,0,10.06
67,0,10.07
68,0,10.06
69,0,10.07
70,0,10.07
71,0,10.07
72,0,10.04
73,0,10.06
74,0,10.06
75,0,10.06
76,0,10.05
77,0,10.05
78,0,10.06
79,0,10.05
80,0,10.05
81,0,10.06
82,0,10.05
83,0,10.06
84,0,10.05
85,0,10.06
86,0,10.05
87,0,10.06
88,0,10.06
89,0,10.06
90,0,10.07
91,0,10.05
92,0,10.05
93,0,10.05
94,0,10.06
95,0,10.06
96,0,10.06
97,0,10.06
98,0,10.06
99,0,10.05
100,0,10.06
101,0,10.06
102,0,10.06
103,0,10.05
104,0,10.06
105,0,10.06
106,0,10.06
107,0,10.05
108,0,10.06
109,0,10.05
110,0,10.06
111,0,10.06
112,0,10.06
113,0,10.06
114,0,10.07
115,0,10.06
116,0,10.06
117,0,10.06
118,0,10.06
119,0,10.05
120,0,10.07
121,0,10.06
122,0,10.06
123,0,10.05
124,0,10.07
125,0,10.06
126,0,10.05
127,0,10.06
128,0,10.06
129,0,10.06
130,0,10.06
131,0,10.06
132,0,10.06
133,0,10.05
134,0,10.06
135,0,10.06
136,0,10.06
137,0,10.06
138,0,10.06
139,0,10.06
140,0,10.06
141,0,10.05
142,0,10.05
143,0,10.06
144,0,10.06
145,0,10.06
146,0,10.06
147,0,10.06
148,0,10.05
149,0,10.07
150,0,10.06
151,0,10.05
152,0,10.05
153,0,10.06
154,0,10.07
155,0,10.06
156,0,10.06
157,0,10.04
158,0,10.06
159,0,10.06
160,0,10.06
161,0,10.07
162,0,10.06
163,0,10.06
164,0,10.05
165,0,10.05
166,0,10.05
167,0,10.07
168,0,10.05
169,0,10.06
170,0,10.06
171,0,10.07
172,0,10.05
173,0,10.05
174,0,10.06
175,0,10.06
176,0,10.04
177,0,10.06
178,0,10.06
179,0,10.06
180,0,10.06
181,0,10.05
182,0,10.07
183,0,10.06
184,0,10.06
185,0,10.06
186,0,10.06
187,0,10.06
188,0,10.06
189,0,10.05
190,0,10.05
190,0,10.05
192,0,10.05
193,0,10.07
194,0,10.05
195,0,10.07
196,0,10.06
197,0,10.05
198,0,10.06
199,0,10.06
0,0,10.06
1,0,10.06
2,0,10.05
3,0,10.06
4,0,10.06
5,0,10.05
6,0,10.06
7,0,10.05
8,0,10.06
9,0,10.05
10,0,10.05
11,0,10.05
12,0,10.06
13,0,10.06
14,0,10.05
15,0,10.07
16,0,10.06
17,0,10.06
18,0,10.06
19,0,10.06
20,0,10.06
21,0,10.06
22,0,10.06
23,0,10.06
24,0,10.06
25,0,10.05
26,0,10.06
27,0,10.07
28,0,10.05
29,0,10.06
30,0,10.07
31,0,10.05
32,0,10.06
33,0,10.07
34,0,10.05
35,0,10.05
36,0,10.06
37,0,10.07
38,0,10.06
39,0,10.06
40,0,10.06
41,0,10.06
42,0,10.06
43,0,10.05
44,0,10.07
45,0,10.06
46,0,10.06
47,0,10.05
48,0,10.06
49,0,10.06
50,0,10.06
51,0,10.05
52,0,10.06
53,0,10.05
54,0,10.05
55,0,10.06
56,0,10.06
57,0,10.07
58,0,10.07
59,0,10.06
60,0,10.06
61,0,10.06
62,0,10.06
63,0,10.06
64,0,10.06
65,0,10.06
66,0,10.06
67,0,10.06
68,0,10.05
69,0,10.05
70,0,10.05
71,0,10.06
72,0,10.07
73,0,10.05
74,0,10.05
75,0,10.06
76,0,10.05
77,0,10.06
78,0,10.05
79,0,10.05
80,0,10.07
81,0,10.05
82,0,10.07
83,0,10.06
84,0,10.06
85,0,10.06
86,0,10.06
87,0,10.06
88,0,10.06
89,0,10.05
90,0,10.06
91,0,10.06
92,0,10.07
93,0,10.05
94,0,10.06
95,0,10.06
96,0,10.05
97,0,10.06
98,0,10.06
99,0,10.06
100,0,10.06
101,0,10.06
102,0,10.05
103,0,10.07
104,0,10.05
105,0,10.06
106,0,10.06
107,0,10.06
108,0,10.06
109,0,10.05
110,0,10.05
111,0,10.06
112,0,10.06
113,0,10.05
114,0,10.05
115,0,10.06
116,0,10.06
117,0,10.06
118,0,10.06
119,0,10.06
120,0,10.06
121,0,10.05
122,0,10.06
123,0,10.07
124,0,10.05
125,0,10.06
126,0,10.06
127,0,10.06
128,0,10.06
129,0,10.07
130,0,10.06
131,0,10.06
132,0,10.06
133,0,10.06
134,0,10.05
135,0,10.05
136,0,10.07
137,0,10.05
138,0,10.06
139,0,10.06
140,0,10.06
141,0,10.06
142,0,10.07
143,0,10.05
144,0,10.05
145,0,10.06
146,0,10.06
147,0,10.06
148,0,10.06
149,0,10.06
150,0,10.06
151,0,10.06
152,0,10.06
153,0,10.05
154,0,10.06
155,0,10.06
156,0,10.05
157,0,10.05
158,0,10.07
159,0,10.06
160,0,10.05
161,0,10.06
162,0,10.06
163,0,10.05
164,0,10.07
165,0,10.06
166,0,10.06
167,0,10.06
168,0,10.07
169,0,10.06
170,0,10.05
171,0,10.05
172,0,10.06
173,0,10.05
174,0,10.05
175,0,10.06
176,0,10.06
177,0,10.06
178,0,10.06
179,0,10.06
180,0,10.06
181,0,10.05
182,0,10.07
183,0,10.06
184,0,10.05
185,0,10.06
186,0,10.05
187,0,10.06
188,0,10.05
189,0,10.05
190,0,10.07
191,0,10.06
192,0,10.06
193,0,10.06
194,0,10.06
195,0,10.05
196,0,10.06
197,0,10.06
198,0,10.06
199,0,10.06
0,0,10.06
1,0,10.06
2,0,10.06
3,0,10.06
4,0,10.05
5,0,10.06
6,0,10.05
7,0,10.05
8,0,10.06
9,0,10.06
10,0,10.06
11,0,10.06
12,0,10.05
13,0,10.06
14,0,10.05
15,0,10.06
16,0,10.07
17,0,10.06
18,0,10.06
19,0,10.05
20,0,10.07
21,0,10.05
22,0,10.06
23,0,10.05
24,0,10.07
25,0,10.05
26,0,10.06
27,0,10.06
28,0,10.06
29,0,10.06
30,0,10.06
31,0,10.06
32,0,10.07
33,0,10.05
34,0,10.05
35,0,10.06
36,0,10.07
37,0,10.07
38,0,10.06
39,0,10.05
40,0,10.06
41,0,10.04
42,0,10.06
43,0,10.06
44,0,10.06
45,0,10.05
46,0,10.06
47,0,10.06
48,0,10.05
49,0,10.06
50,0,10.06
51,0,10.06
52,0,10.07
53,0,10.05
54,0,10.06
55,0,10.06
56,0,10.07
57,0,10.05
58,0,10.06
59,0,10.06
60,0,10.06
61,0,10.05
62,0,10.06
63,0,10.05
64,0,10.06
65,0,10.06
66,0,10.06
67,0,10.05
68,0,10.06
69,0,10.05
70,0,10.06
71,0,10.07
72,0,10.06
73,0,10.05
74,0,10.07
75,0,10.07
76,0,10.06
77,0,10.06
78,0,10.06
79,0,10.05
80,0,10.06
81,0,10.06
82,0,10.06
83,0,10.06
84,0,10.06
85,0,10.06
86,0,10.06
87,0,10.06
88,0,10.06
89,0,10.05
90,0,10.05
91,0,10.06
92,0,10.06
93,0,10.05
94,0,10.06
95,0,10.05
96,0,10.06
97,0,10.05
98,0,10.06
99,0,10.06
100,0,10.06
101,0,10.06
102,0,10.06
103,0,10.05
104,0,10.05
105,0,10.05
106,0,10.06
107,0,10.06
108,0,10.05
109,0,10.05
110,0,10.07
111,0,10.06
112,0,10.05
113,0,10.05
114,0,10.07
115,0,10.06
116,0,10.06
117,0,10.07
118,0,10.06
119,0,10.06
120,0,10.07
121,0,10.06
122,0,10.06
123,0,10.05
124,0,10.07
125,0,10.07
126,0,10.06
127,0,10.05
128,0,10.05
129,0,10.06
130,0,10.06
131,0,10.06
132,0,10.06
133,0,10.07
134,0,10.06
135,0,10.06
136,0,10.06
137,0,10.05
138,0,10.06
139,0,10.06
140,0,10.05
141,0,10.06
142,0,10.06
143,0,10.06
144,0,10.07
145,0,10.06
146,0,10.06
147,0,10.06
148,0,10.05
149,0,10.06
150,0,10.06
151,0,10.05
152,0,10.06
153,0,10.07
154,0,10.05
155,0,10.06
156,0,10.07
157,0,10.05
158,0,10.05
159,0,10.05
160,0,10.06
161,0,10.06
162,0,10.06
163,0,10.06
164,0,10.05
165,0,10.06
166,0,10.06
167,0,10.06
168,0,10.06
169,0,10.06
170,0,10.05
171,0,10.06
172,0,10.06
173,0,10.04
174,0,10.05
175,0,10.06
176,0,10.07
177,0,10.06
178,0,10.06
179,0,10.06
180,0,10.06
181,0,10.06
182,0,10.04
183,0,10.06
184,0,10.05
185,0,10.05
186,0,10.07
187,0,10.06
188,0,10.06
189,0,10.07
190,0,10.06
191,0,10.06
192,0,10.05
193,0,10.05
194,0,10.06
195,0,10.05
196,0,10.06
197,0,10.06
198,0,10.06
199,0,10.04
0,0,10.05
1,0,10.04
2,0,10.05
3,0,10.06
4,0,10.06
5,0,10.05
6,0,10.06
7,0,10.06
8,0,10.05
9,0,10.06
10,0,10.06
11,0,10.05
12,0,10.06
13,0,10.05
14,0,10.06
15,0,10.06
16,0,10.05
17,0,10.05
18,0,10.06
19,0,10.05
20,0,10.06
21,0,10.07
22,0,10.04
23,0,10.03
24,0,10.08
25,0,10.09
26,0,10.06
27,0,10.07
28,0,10.05
29,0,10.07
30,0,10.14
31,0,10.06
32,0,10.07
33,0,10.09
34,0,10.06
35,0,10.06
36,0,10.07
37,0,10.03
38,0,10.05
39,0,10.05
40,0,10.06
41,0,10.07
42,0,10.06
43,0,10.01
44,0,10.03
45,0,10.06
46,0,10.01
47,0,10.06
48,0,10.05
49,0,10.05
50,0,10.05
51,0,10.07
52,0,10.08
53,0,10.05
54,0,10.12
55,0,10.09
56,0,10.05
57,0,10.04
58,0,10.08
59,0,10.1
60,0,10.01
61,0,10.06
62,0,10.06
63,0,10.08
64,0,10.03
65,0,10.06
66,0,10.05
67,0,10.08
68,0,10.07
69,0,10.07
70,0,10.06
71,0,10.06
72,0,10.06
73,0,10.06
74,0,10.06
75,0,10.06
76,0,10.06
77,0,10.14
78,0,10.03
79,0,10.07
80,0,10.13
81,0,10.14
82,0,10.09
83,0,10.07
84,0,10.1
85,0,10.03
86,0,10.04
87,0,10.27
88,0,10.01
89,0,10.09
90,0,10.15
91,0,10.1
92,0,10.34
93,0,10.18
94,0,10.04
95,0,10.03
96,0,10.11
97,0,9.96
98,0,10.05
99,0,10.06
100,0,10.08
101,0,10.08
102,0,10.06
103,0,10.04
104,0,10.04
105,0,10.05
106,0,10.07
107,0,10.06
108,0,10.07
109,0,10.05
110,0,10.06
111,0,10.06
112,0,10.08
113,0,10.12
114,0,10.06
115,0,10.06
116,0,10.05
117,0,10.05
118,0,10.05
119,0,10.06
120,0,10.06
121,0,10.07
122,0,10.06
123,0,10.09
124,0,10.06
125,0,10.06
126,0,10.05
127,0,10.07
128,0,10.05
129,0,10.06
130,0,10.06
131,0,10.07
132,0,10.06
133,0,10.06
134,0,10.07
135,0,10.07
136,0,10.05
137,0,10.06
138,0,10.06
139,0,10.06
140,0,10.05
141,0,10.06
142,0,10.06
143,0,10.06
144,0,10.06
145,0,10.06
146,0,9.72
147,0,9.95
148,0,10.09
149,0,10.07
150,0,10.08
151,0,10.04
152,0,10.05
153,0,10.06
154,0,10.05
155,0,10.06
156,0,10.06
157,0,10.06
158,0,10.06
159,0,10.06
160,0,10.05
161,0,10.07
162,0,10.06
163,0,10.05
164,0,10.07
165,0,10.07
166,0,10.06
167,0,10.06
167,0,10.06
169,0,10.06
170,0,10.06
171,0,10.05
172,0,10.06
173,0,10.05
174,0,10.06
175,0,10.05
176,0,10.05
177,0,10.06
178,0,10.06
179,0,10.06
180,0,10.06
181,0,10.06
182,0,10.05
183,0,10.07
184,0,10.07
185,0,10.06
186,0,10.06
187,0,10.06
188,0,10.06
189,0,10.05
190,0,10.06
191,0,10.06
192,0,10.06
193,0,10.06
194,0,10.06
195,0,10.07
196,0,10.07
197,0,10.06
198,0,10.05
199,0,10.06
0,0,10.05
1,0,10.05
2,0,10.06
3,0,10.07
4,0,10.07
5,0,10.06
6,0,10.06
7,0,10.06
8,0,10.05
9,0,10.05
10,0,10.05
11,0,10.06
12,0,10.06
13,0,10.05
14,0,10.06
15,0,10.06
16,0,10.06
17,0,10.06
18,0,10.06
19,0,10.05
20,0,10.06
21,0,10.05
22,0,10.06
23,0,10.06
24,0,10.05
25,0,10.06
26,0,10.06
27,0,10.06
28,0,10.06
29,0,10.05
30,0,10.06
31,0,10.06
32,0,10.06
33,0,10.06
34,0,10.06
35,0,10.05
36,0,10.05
37,0,10.07
38,0,10.05
39,0,10.06
40,0,10.05
41,0,10.06
42,0,10.06
43,0,10.06
44,0,10.06
45,0,10.06
46,0,10.06
47,0,10.05
48,0,10.05
49,0,10.04
50,0,10.05
51,0,10.06
52,0,10.06
53,0,10.05
54,0,10.06
55,0,10.06
56,0,10.06
57,0,10.06
58,0,10.06
59,0,10.06
60,0,10.05
61,0,10.06
62,0,10.06
63,0,10.06
64,0,10.06
65,0,10.06
66,0,10.05
67,0,10.06
68,0,10.06
69,0,10.06
70,0,10.07
71,0,10.05
72,0,10.06
73,0,10.07
74,0,10.07
75,0,10.05
76,0,10.06
77,0,10.05
78,0,10.06
79,0,10.06
80,0,10.06
81,0,10.05
82,0,10.06
83,0,10.05
84,0,10.06
85,0,10.06
86,0,10.05
87,0,10.05
88,0,10.06
89,0,10.06
90,0,10.06
91,0,10.05
92,0,10.06
93,0,10.06
94,0,10.07
95,0,10.06
96,0,10.06
97,0,10.05
98,0,10.06
99,0,10.06
100,0,10.06
101,0,10.06
102,0,10.06
103,0,10.06
104,0,10.06
105,0,10.06
106,0,10.06
107,0,10.06
108,0,10.06
109,0,10.05
110,0,10.05
111,0,10.05
112,0,10.06
113,0,10.06
114,0,10.06
115,0,10.05
116,0,10.06
117,0,10.06
118,0,10.05
119,0,10.05
120,0,10.06
121,0,10.06
122,0,10.06
123,0,10.06
124,0,10.06
125,0,10.06
126,0,10.07
127,0,10.06
128,0,10.06
129,0,10.05
130,0,10.07
131,0,10.05
132,0,10.07
133,0,10.05
134,0,10.06
135,0,10.07
136,0,10.05
137,0,10.06
138,0,10.06
139,0,10.05
140,0,10.05
141,0,10.06
142,0,10.06
143,0,10.05
144,0,10.06
145,0,10.06
146,0,10.06
147,0,10.07
148,0,10.07
149,0,10.05
150,0,10.06
151,0,10.07
152,0,10.06
153,0,10.06
154,0,10.06
155,0,10.06
156,0,10.06
157,0,10.06
158,0,10.05
159,0,10.06
160,0,10.06
161,0,10.05
162,0,10.07
163,0,10.06
164,0,10.05
165,0,10.06
166,0,10.06
167,0,10.06
168,0,10.07
169,0,10.07
170,0,10.06
171,0,10.05
172,0,10.05
172,0,10.05
174,0,10.06
175,0,10.06
176,0,10.06
177,0,10.06
178,0,10.06
179,0,10.06
180,0,10.06
181,0,10.06
182,0,10.06
183,0,10.07
184,0,10.05
185,0,10.06
186,0,10.07
187,0,10.06
188,0,10.07
189,0,10.05
190,0,10.05
191,0,10.06
192,0,10.06
193,0,10.06
194,0,10.05
195,0,10.06
196,0,10.05
197,0,10.05
198,0,10.06
199,0,10.06
0,0,10.07
1,0,10.05
2,0,10.06
3,0,10.05
4,0,10.05
5,0,10.05
6,0,10.07
7,0,10.05
8,0,10.06
9,0,10.07
10,0,10.05
11,0,10.06
12,0,10.06
13,0,10.06
14,0,10.06
15,0,10.06
16,0,10.05
17,0,10.06
18,0,10.06
19,0,10.05
20,0,10.06
21,0,10.06
22,0,10.05
23,0,10.07
24,0,10.06
25,0,10.06
26,0,10.05
27,0,10.04
28,0,10.06
29,0,10.06
30,0,10.06
31,0,10.07
32,0,10.05
33,0,10.06
34,0,10.06
35,0,10.05
36,0,10.06
37,0,10.07
38,0,10.06
39,0,10.06
40,0,10.05
41,0,10.06
42,0,10.05
43,0,10.06
44,0,10.06
45,0,10.06
46,0,10.06
47,0,10.06
48,0,10.06
49,0,10.05
50,0,10.07
51,0,10.05
52,0,10.05
53,0,10.07
54,0,10.05
55,0,10.06
56,0,10.06
57,0,10.06
58,0,10.05
59,0,10.06
60,0,10.05
61,0,10.05
62,0,10.05
63,0,10.06
64,0,10.06
65,0,10.06
66,0,10.06
67,0,10.06
68,0,10.05
69,0,10.07
70,0,10.06
71,0,10.07
72,0,10.05
73,0,10.07
74,0,10.06
75,0,10.05
76,0,10.05
77,0,10.06
78,0,10.06
79,0,10.07
80,0,10.05
81,0,10.05
82,0,10.06
83,0,10.06
84,0,10.07
85,0,10.08
86,0,10.07
87,0,10.05
88,0,10.05
89,0,10.06
90,0,10.07
91,0,10.07
92,0,10.07
93,0,10.06
94,0,10.06
95,0,10.05
96,0,10.06
97,0,10.05
98,0,10.06
99,0,10.05
100,0,10.06
100,0,10.05
102,0,10.07
103,0,10.07
104,0,10.06
105,0,10.06
106,0,10.06
107,0,10.06
108,0,10.05
109,0,10.06
110,0,10.06
111,0,10.05
112,0,10.06
113,0,10.06
114,0,10.05
115,0,10.06
116,0,10.05
117,0,10.05
118,0,10.06
119,0,10.05
120,0,10.06
121,0,10.06
122,0,10.07
123,0,10.08
123,0,10.05
125,0,10.06
126,0,10.06
127,0,10.07
128,0,10.06
129,0,10.07
130,0,10.06
131,0,10.05
132,0,10.05
133,0,10.06
134,0,10.06
135,0,10.06
136,0,10.06
137,0,10.06
138,0,10.05
139,0,10.05
140,0,10.06
141,0,10.07
142,0,10.05
143,0,10.06
144,0,10.05
145,0,10.05
146,0,10.07
147,0,10.05
148,0,10.06
149,0,10.06
150,0,10.06
151,0,10.05
152,0,10.06
153,0,10.05
154,0,10.05
155,0,10.05
156,0,10.06
157,0,10.05
158,0,10.06
159,0,10.06
160,0,10.06
161,0,10.06
162,0,10.05
163,0,10.06
164,0,10.06
165,0,10.05
166,0,10.06
167,0,10.06
168,0,10.05
169,0,10.06
170,0,10.05
171,0,10.05
172,0,10.06
173,0,10.04
174,0,10.05
175,0,10.06
176,0,10.06
177,0,10.06
178,0,10.06
179,0,10.06
180,0,10.06
181,0,10.07
182,0,10.06
183,0,10.06
184,0,10.06
185,0,10.05
186,0,10.05
187,0,10.06
188,0,10.07
189,0,10.06
190,0,10.05
191,0,10.06
192,0,10.06
193,0,10.06
194,0,10.06
195,0,10.06
196,0,10.06
197,0,10.06
198,0,10.07
199,0,10.06
0,0,10.06
1,0,10.07
2,0,10.06
3,0,10.06
4,0,10.06
5,0,10.06
6,0,10.05
7,0,10.07
8,0,10.05
9,0,10.05
10,0,10.06
11,0,10.06
12,0,10.06
13,0,10.05
14,0,10.05
15,0,10.06
16,0,10.05
17,0,10.05
18,0,10.06
19,0,10.05
20,0,10.06
21,0,10.06
22,0,10.06
23,0,10.05
24,0,10.06
25,0,10.07
26,0,10.06
27,0,10.06
28,0,10.07
29,0,10.05
30,0,10.06
31,0,10.06
32,0,10.06
33,0,10.07
34,0,10.05
35,0,10.07
36,0,10.06
37,0,10.06
38,0,10.06
39,0,10.05
40,0,10.06
41,0,10.06
42,0,10.07
43,0,10.06
44,0,10.05
45,0,10.06
46,0,10.06
47,0,10.06
48,0,10.06
49,0,10.05
50,0,10.05
51,0,10.07
52,0,10.07
53,0,10.06
54,0,10.06
55,0,10.06
56,0,10.05
57,0,10.05
58,0,10.06
59,0,10.06
60,0,10.06
61,0,10.06
62,0,10.06
63,0,10.06
64,0,10.06
65,0,10.05
66,0,10.05
67,0,10.06
68,0,10.06
69,0,10.06
70,0,10.06
71,0,10.05
72,0,10.05
73,0,10.06
74,0,10.06
75,0,10.06
76,0,10.06
77,0,10.05
78,0,10.06
79,0,10.05
80,0,10.05
81,0,10.07
82,0,10.05
83,0,10.05
84,0,10.06
85,0,10.05
86,0,10.06
87,0,10.05
88,0,10.06
89,0,10.06
90,0,10.05
91,0,10.05
92,0,10.05
93,0,10.06
94,0,10.06
95,0,10.05
96,0,10.06
97,0,10.06
98,0,10.06
99,0,10.06
100,0,10.07
101,0,10.05
102,0,10.05
103,0,10.05
104,0,10.06
105,0,10.06
106,0,10.05
107,0,10.06
108,0,10.05
109,0,10.06
110,0,10.06
111,0,10.05
112,0,10.05
113,0,10.06
114,0,10.05
115,0,10.05
116,0,10.06
117,0,10.06
118,0,10.05
119,0,10.05
120,0,10.06
121,0,10.06
122,0,10.06
123,0,10.07
124,0,10.06
125,0,10.06
126,0,10.06
127,0,10.06
128,0,10.07
129,0,10.06
130,0,10.06
131,0,10.05
132,0,10.05
133,0,10.06
134,0,10.06
135,0,10.06
136,0,10.06
137,0,10.05
138,0,10.06
139,0,10.06
140,0,10.05
141,0,10.06
142,0,10.05
143,0,10.06
144,0,10.05
145,0,10.06
146,0,10.05
147,0,10.06
148,0,10.06
149,0,10.05
150,0,10.06
151,0,10.06
152,0,10.05
153,0,10.06
154,0,10.06
155,0,10.06
156,0,10.06
157,0,10.06
158,0,10.06
159,0,10.06
160,0,10.06
161,0,10.07
162,0,10.06
163,0,10.05
164,0,10.05
165,0,10.06
166,0,10.05
167,0,10.06
168,0,10.06
169,0,10.05
170,0,10.05
171,0,10.06
172,0,10.07
173,0,10.06
174,0,10.05
175,0,10.06
176,0,10.07
177,0,10.06
178,0,10.07
179,0,10.06
180,0,10.05
181,0,10.06
182,0,10.06
183,0,10.07
184,0,10.05
185,0,10.06
186,0,10.05
187,0,10.07
188,0,10.06
189,0,10.06
190,0,10.06
191,0,10.06
192,0,10.06
193,0,10.06
194,0,10.05
195,0,10.06
196,0,10.06
197,0,10.05
198,0,10.05
199,0,10.05
0,0,10.06
1,0,10.05
2,0,10.06
3,0,10.06
4,0,10.06
5,0,10.05
6,0,10.06
7,0,10.06
8,0,10.06
9,0,10.06
10,0,10.05
11,0,10.06
12,0,10.05
13,0,10.06
14,0,10.05
15,0,10.06
16,0,10.07
17,0,10.06
18,0,10.05
19,0,10.06
20,0,10.07
21,0,10.07
22,0,10.06
23,0,10.06
24,0,10.05
25,0,10.06
26,0,10.05
27,0,10.06
28,0,10.06
29,0,10.07
30,0,10.06
31,0,10.06
32,0,10.06
33,0,10.06
34,0,10.06
35,0,10.06
36,0,10.06
37,0,10.06
38,0,10.06
39,0,10.05
40,0,10.06
41,0,10.05
42,0,10.07
43,0,10.05
44,0,10.06
45,0,10.06
46,0,10.05
47,0,10.05
48,0,10.06
49,0,10.06
50,0,10.07
51,0,10.06
52,0,10.05
53,0,10.06
54,0,10.06
55,0,10.06
56,0,10.06
57,0,10.06
58,0,10.06
59,0,10.06
60,0,10.06
61,0,10.06
62,0,10.06
63,0,10.06
64,0,10.06
65,0,10.06
66,0,10.05
67,0,10.05
68,0,10.07
69,0,10.05
70,0,10.07
71,0,10.07
72,0,10.05
73,0,10.06
74,0,10.06
75,0,10.05
76,0,10.06
77,0,10.07
78,0,10.05
79,0,10.06
80,0,10.07
81,0,10.05
82,0,10.05
83,0,10.05
84,0,10.05
85,0,10.06
86,0,10.05
87,0,10.05
88,0,10.07
89,0,10.05
90,0,10.05
91,0,10.06
92,0,10.05
93,0,10.06
94,0,10.06
95,0,10.06
96,0,10.07
97,0,10.06
98,0,10.05
99,0,10.05
100,0,10.07
101,0,10.05
102,0,10.06
103,0,10.06
104,0,10.05
105,0,10.07
106,0,10.06
107,0,10.06
108,0,10.06
109,0,10.05
110,0,10.06
111,0,10.05
112,0,10.05
113,0,10.06
114,0,10.05
115,0,10.05
116,0,10.06
117,0,10.06
118,0,10.06
119,0,10.06
120,0,10.06
121,0,10.06
122,0,10.06
123,0,10.05
124,0,10.06
125,0,10.06
126,0,10.06
127,0,10.06
128,0,10.06
129,0,10.06
130,0,10.06
131,0,10.07
132,0,10.06
133,0,10.06
134,0,10.06
135,0,10.06
136,0,10.06
137,0,10.06
138,0,10.06
139,0,10.07
140,0,10.06
141,0,10.06
142,0,10.06
143,0,10.05
144,0,10.06
145,0,10.06
146,0,10.05
147,0,10.05
148,0,10.06
149,0,10.06
150,0,10.07
151,0,10.07
152,0,10.06
153,0,10.05
154,0,10.06
155,0,10.07
156,0,10.06
157,0,10.06
158,0,10.06
159,0,10.06
160,0,10.06
161,0,10.06
162,0,10.06
163,0,10.05
164,0,10.06
165,0,10.06
166,0,10.06
167,0,10.06
168,0,10.05
169,0,10.05
170,0,10.07
171,0,10.06
172,0,10.05
173,0,10.06
174,0,10.07
175,0,10.06
176,0,10.06
177,0,10.05
178,0,10.07
179,0,10.05
180,0,10.06
181,0,10.06
182,0,10.06
183,0,10.05
184,0,10.06
185,0,10.05
186,0,10.06
187,0,10.06
188,0,10.06
189,0,10.06
190,0,10.06
191,0,10.06
192,0,10.06
193,0,10.06
194,0,10.06
195,0,10.05
196,0,10.07
197,0,10.07
198,0,10.06
199,0,10.06
0,0,10.06
1,0,10.07
2,0,10.06
3,0,10.05
4,0,10.06
5,0,10.06
6,0,10.05
7,0,10.06
8,0,10.07
9,0,10.06
10,0,10.06
11,0,10.06
12,0,10.05
13,0,10.06
14,0,10.06
15,0,10.07
16,0,10.05
17,0,10.06
18,0,10.06
19,0,10.06
20,0,10.06
21,0,10.07
22,0,10.06
23,0,10.06
24,0,10.06
25,0,10.06
26,0,10.05
27,0,10.06
28,0,10.07
29,0,10.06
30,0,10.06
31,0,10.05
32,0,10.05
33,0,10.07
34,0,10.06
35,0,10.06
36,0,10.06
37,0,10.06
38,0,10.06
39,0,10.06
40,0,10.06
41,0,10.07
42,0,10.05
43,0,10.05
44,0,10.06
45,0,10.05
46,0,10.05
47,0,10.07
48,0,10.06
49,0,10.06
50,0,10.05
51,0,10.06
52,0,10.06
53,0,10.05
54,0,10.05
55,0,10.05
56,0,10.06
57,0,10.06
58,0,10.05
59,0,10.06
60,0,10.06
61,0,10.06
62,0,10.05
63,0,10.06
64,0,10.05
65,0,10.06
66,0,10.06
67,0,10.06
68,0,10.06
69,0,10.04
70,0,10.05
71,0,10.06
72,0,10.05
73,0,10.05
74,0,10.06
75,0,10.06
76,0,10.06
77,0,10.06
78,0,10.07
79,0,10.07
80,0,10.06
81,0,10.06
82,0,10.06
83,0,10.05
84,0,10.05
85,0,10.05
86,0,10.07
87,0,10.06
88,0,10.04
89,0,10.05
90,0,10.05
91,0,10.05
92,0,10.06
93,0,10.06
94,0,10.06
95,0,10.05
96,0,10.06
97,0,10.07
98,0,10.06
99,0,10.07
100,0,10.06
101,0,10.05
102,0,10.06
103,0,10.06
104,0,10.06
105,0,10.07
106,0,10.06
107,0,10.06
108,0,10.05
109,0,10.06
110,0,10.05
111,0,10.06
112,0,10.06
113,0,10.06
114,0,10.05
115,0,10.06
116,0,10.06
117,0,10.06
118,0,10.06
119,0,10.05
120,0,10.06
121,0,10.05
122,0,10.06
123,0,10.05
124,0,10.07
125,0,10.06
126,0,10.05
127,0,10.06
128,0,10.06
129,0,10.07
130,0,10.06
131,0,10.06
132,0,10.05
133,0,10.06
134,0,10.06
135,0,10.06
136,0,10.06
137,0,10.06
138,0,10.05
139,0,10.06
140,0,10.06
141,0,10.06
142,0,10.05
143,0,10.06
144,0,10.05
145,0,10.06
146,0,10.07
147,0,10.06
148,0,10.06
149,0,10.06
150,0,10.06
151,0,10.05
152,0,10.05
153,0,10.05
154,0,10.07
155,0,10.05
156,0,10.05
157,0,10.06
158,0,10.05
159,0,10.05
160,0,10.07
161,0,10.06
162,0,10.06
163,0,10.06
164,0,10.06
165,0,10.05
166,0,10.06
167,0,10.04
168,0,10.06
169,0,10.06
170,0,10.06
171,0,10.05
172,0,10.02
173,0,10.07
174,0,10.06
175,0,9.98
176,0,10.03
177,0,10.04
178,0,10.07
179,0,10.05
180,0,10.06
181,0,10.06
182,0,10.05
183,0,10.07
184,0,10.05
185,0,10.05
186,0,10.06
187,0,10.06
188,0,10.06
189,0,10.06
190,0,10.08
191,0,10.05
192,0,10.05
193,0,10.07
194,0,10.07
195,0,10.06
196,0,10.07
197,0,10.05
198,0,10.07
199,0,10.05
0,0,10.05
1,0,10.06
2,0,10.06
3,0,10.05
4,0,10.08
5,0,10.06
6,0,10.05
7,0,10.06
8,0,10.05
9,0,10.06
10,0,10.06
11,0,10.06
12,0,10.06
13,0,10.06
14,0,10.06
15,0,10.05
16,0,10.06
17,0,10.05
18,0,10.05
19,0,10.05
20,0,10.06
21,0,10.05
22,0,10.07
23,0,10.05
24,0,10.06
25,0,10.05
26,0,10.06
27,0,10.07
28,0,10.06
29,0,10.05
30,0,10.04
31,0,10.05
32,0,10.06
33,0,10.07
34,0,10.06
35,0,10.05
36,0,10.06
37,0,10.06
38,0,10.06
39,0,10.06
40,0,10.06
41,0,10.05
42,0,10.05
43,0,10.07
44,0,10.07
45,0,10.08
46,0,10.06
47,0,10.09
48,0,10.11
49,0,10.03
50,0,10.05
51,0,10.05
52,0,10.06
53,0,10.06
54,0,10.04
55,0,10.1
56,0,10.05
57,0,10.04
58,0,10.09
59,0,10.05
60,0,10.05
61,0,10.05
62,0,10.06
63,0,10.06
64,0,10.07
65,0,10.07
66,0,10.06
67,0,10.05
68,0,10.06
69,0,10.05
70,0,10.06
71,0,10.06
72,0,10.06
73,0,10.04
74,0,10.0
75,0,10.07
76,0,10.05
77,0,10.07
78,0,10.04
79,0,10.05
80,0,10.06
81,0,10.05
82,0,10.06
83,0,10.05
84,0,10.05
85,0,10.06
86,0,10.05
87,0,10.05
88,0,10.07
89,0,10.07
90,0,10.05
91,0,10.06
92,0,10.06
93,0,10.07
94,0,10.06
95,0,10.05
96,0,10.07
97,0,10.05
98,0,10.05
99,0,10.06
100,0,10.06
101,0,10.05
102,0,10.07
103,0,10.06
104,0,10.06
105,0,10.06
106,0,10.05
107,0,9.92
108,0,10.13
109,0,10.13
110,0,10.05
111,0,10.05
112,0,10.05
113,0,10.07
114,0,10.07
115,0,10.01
116,0,10.06
117,0,10.08
118,0,10.06
119,0,10.05
120,0,10.04
121,0,10.05
122,0,10.07
123,0,10.05
124,0,10.06
125,0,10.03
126,0,10.05
127,0,10.06
128,0,10.07
129,0,10.06
130,0,10.04
131,0,10.06
132,0,10.07
133,0,10.05
134,0,10.05
135,0,10.06
136,0,10.05
137,0,10.06
138,0,10.04
139,0,10.05
140,0,10.06
141,0,10.06
142,0,10.04
143,0,9.93
144,0,10.03
145,0,10.05
146,0,10.05
147,0,10.05
148,0,10.05
149,0,10.05
150,0,10.05
151,0,10.06
152,0,10.06
153,0,10.06
154,0,10.06
155,0,10.05
156,0,10.06
157,0,10.07
158,0,10.06
159,0,10.06
160,0,10.06
161,0,10.04
162,0,10.06
163,0,10.06
164,0,10.06
165,0,10.06
166,0,10.06
167,0,10.05
168,0,10.04
169,0,10.06
170,0,10.04
171,0,10.08
172,0,10.05
173,0,10.05
174,0,10.05
175,0,10.05
176,0,10.06
177,0,10.06
178,0,10.06
179,0,10.04
180,0,10.06
181,0,10.01
182,0,10.06
183,0,10.08
184,0,10.07
185,0,10.06
186,0,10.05
187,0,10.05
188,0,10.04
189,0,10.05
190,0,10.07
191,0,10.06
192,0,10.05
193,0,10.06
194,0,10.06
195,0,10.07
196,0,10.05
197,0,10.06
198,0,10.05
199,0,10.06
0,0,10.05
1,0,10.06
2,0,10.06
3,0,10.05
4,0,10.07
5,0,10.05
6,0,10.06
7,0,10.06
8,0,10.05
9,0,10.05
10,0,10.06
11,0,10.06
12,0,10.06
13,0,10.07
14,0,10.04
15,0,10.06
16,0,10.07
17,0,10.05
18,0,10.05
19,0,10.06
20,0,10.05
21,0,10.05
22,0,10.06
23,0,10.05
24,0,10.06
25,0,10.05
26,0,10.06
27,0,10.06
28,0,10.06
29,0,10.07
30,0,10.06
31,0,9.99
32,0,10.06
33,0,10.06
34,0,10.05
35,0,10.07
36,0,10.07
37,0,10.06
38,0,10.06
39,0,10.08
40,0,10.04
41,0,10.04
42,0,9.96
43,0,10.2
44,0,10.03
45,0,10.1
46,0,10.06
47,0,10.06
48,0,10.08
49,0,10.06
50,0,10.06
51,0,10.05
52,0,10.06
53,0,10.06
54,0,10.06
55,0,10.71
56,0,10.27
57,0,9.97
58,0,10.06
59,0,10.08
60,0,10.05
61,0,10.15
62,0,10.22
63,0,10.03
64,0,10.04
65,0,10.04
66,0,10.07
67,0,10.02
68,0,10.06
69,0,10.1
70,0,10.11
71,0,10.0
72,0,10.04
73,0,10.07
74,0,10.07
75,0,9.96
76,0,10.06
77,0,9.97
78,0,10.08
79,0,10.08
80,0,10.06
81,0,10.05
82,0,10.05
